July 4, 2024   23:47:58
Amperometric i-t Curve
File: 0.3-0.03
Data Source:  Experiment
Instrument Model:  CHI760E
Header: 
Note: 

Init E (V) = 0.3
Sample Interval (s) = 0.03
Run Time (sec) = 4e+3
Quiet Time (sec) = 0
Sensitivity (A/V) = 1e-7

Results:

Channel 1:

Time/sec, Current/A

3.000e-2, 3.592e-8
6.000e-2, 3.536e-8
9.000e-2, 3.455e-8
1.200e-1, 3.405e-8
1.500e-1, 3.332e-8
1.800e-1, 3.297e-8
2.100e-1, 2.777e-8
2.400e-1, 3.332e-8
2.700e-1, 3.160e-8
3.000e-1, 3.116e-8
3.300e-1, 3.058e-8
3.600e-1, 3.069e-8
3.900e-1, 2.990e-8
4.200e-1, 2.986e-8
4.500e-1, 2.934e-8
4.800e-1, 2.915e-8
5.100e-1, 2.879e-8
5.400e-1, 2.873e-8
5.700e-1, 2.819e-8
6.000e-1, 2.816e-8
6.300e-1, 2.777e-8
6.600e-1, 2.785e-8
6.900e-1, 2.717e-8
7.200e-1, 2.730e-8
7.500e-1, 2.683e-8
7.800e-1, 2.756e-8
8.100e-1, 2.797e-8
8.400e-1, 2.757e-8
8.700e-1, 2.689e-8
9.000e-1, 2.636e-8
9.300e-1, 2.492e-8
9.600e-1, 2.788e-8
9.900e-1, 2.696e-8
1.020e+0, 2.691e-8
1.050e+0, 2.639e-8
1.080e+0, 2.660e-8
1.110e+0, 2.618e-8
1.140e+0, 2.629e-8
1.170e+0, 2.586e-8
1.200e+0, 2.599e-8
1.230e+0, 2.545e-8
1.260e+0, 2.557e-8
1.290e+0, 2.526e-8
1.320e+0, 2.542e-8
1.350e+0, 2.515e-8
1.380e+0, 2.533e-8
1.410e+0, 2.500e-8
1.440e+0, 2.525e-8
1.470e+0, 2.484e-8
1.500e+0, 2.486e-8
1.530e+0, 2.434e-8
1.560e+0, 2.522e-8
1.590e+0, 2.296e-8
1.620e+0, 2.297e-8
1.650e+0, 2.414e-8
1.680e+0, 2.398e-8
1.710e+0, 2.399e-8
1.740e+0, 2.415e-8
1.770e+0, 2.449e-8
1.800e+0, 2.456e-8
1.830e+0, 2.409e-8
1.860e+0, 2.425e-8
1.890e+0, 2.407e-8
1.920e+0, 2.408e-8
1.950e+0, 2.392e-8
1.980e+0, 2.395e-8
2.010e+0, 2.367e-8
2.040e+0, 2.378e-8
2.070e+0, 2.388e-8
2.100e+0, 2.399e-8
2.130e+0, 2.368e-8
2.160e+0, 2.385e-8
2.190e+0, 2.350e-8
2.220e+0, 2.365e-8
2.250e+0, 2.353e-8
2.280e+0, 2.371e-8
2.310e+0, 2.378e-8
2.340e+0, 2.365e-8
2.370e+0, 2.260e-8
2.400e+0, 2.328e-8
2.430e+0, 2.228e-8
2.460e+0, 2.232e-8
2.490e+0, 2.199e-8
2.520e+0, 2.236e-8
2.550e+0, 2.239e-8
2.580e+0, 2.259e-8
2.610e+0, 2.254e-8
2.640e+0, 2.251e-8
2.670e+0, 2.255e-8
2.700e+0, 2.272e-8
2.730e+0, 2.315e-8
2.760e+0, 2.320e-8
2.790e+0, 2.315e-8
2.820e+0, 2.319e-8
2.850e+0, 2.296e-8
2.880e+0, 2.310e-8
2.910e+0, 2.272e-8
2.940e+0, 2.310e-8
2.970e+0, 2.260e-8
3.000e+0, 2.248e-8
3.030e+0, 2.159e-8
3.060e+0, 2.203e-8
3.090e+0, 2.316e-8
3.120e+0, 2.322e-8
3.150e+0, 2.291e-8
3.180e+0, 2.404e-8
3.210e+0, 1.921e-8
3.240e+0, 2.000e-8
3.270e+0, 2.045e-8
3.300e+0, 2.108e-8
3.330e+0, 2.254e-8
3.360e+0, 2.257e-8
3.390e+0, 2.288e-8
3.420e+0, 2.269e-8
3.450e+0, 2.270e-8
3.480e+0, 2.279e-8
3.510e+0, 2.259e-8
3.540e+0, 2.259e-8
3.570e+0, 2.238e-8
3.600e+0, 2.248e-8
3.630e+0, 2.202e-8
3.660e+0, 2.232e-8
3.690e+0, 2.266e-8
3.720e+0, 2.271e-8
3.750e+0, 2.253e-8
3.780e+0, 2.258e-8
3.810e+0, 2.245e-8
3.840e+0, 2.253e-8
3.870e+0, 2.203e-8
3.900e+0, 2.250e-8
3.930e+0, 2.269e-8
3.960e+0, 2.248e-8
3.990e+0, 2.167e-8
4.020e+0, 2.138e-8
4.050e+0, 2.144e-8
4.080e+0, 2.200e-8
4.110e+0, 2.213e-8
4.140e+0, 2.218e-8
4.170e+0, 2.202e-8
4.200e+0, 2.209e-8
4.230e+0, 2.198e-8
4.260e+0, 2.218e-8
4.290e+0, 2.201e-8
4.320e+0, 2.215e-8
4.350e+0, 2.199e-8
4.380e+0, 2.212e-8
4.410e+0, 2.204e-8
4.440e+0, 2.210e-8
4.470e+0, 2.201e-8
4.500e+0, 2.203e-8
4.530e+0, 2.197e-8
4.560e+0, 2.215e-8
4.590e+0, 2.208e-8
4.620e+0, 2.207e-8
4.650e+0, 2.204e-8
4.680e+0, 2.173e-8
4.710e+0, 2.198e-8
4.740e+0, 2.208e-8
4.770e+0, 2.158e-8
4.800e+0, 2.182e-8
4.830e+0, 2.170e-8
4.860e+0, 2.196e-8
4.890e+0, 2.175e-8
4.920e+0, 2.183e-8
4.950e+0, 2.173e-8
4.980e+0, 2.182e-8
5.010e+0, 2.165e-8
5.040e+0, 2.173e-8
5.070e+0, 2.161e-8
5.100e+0, 2.167e-8
5.130e+0, 2.166e-8
5.160e+0, 2.172e-8
5.190e+0, 2.151e-8
5.220e+0, 2.174e-8
5.250e+0, 2.167e-8
5.280e+0, 2.168e-8
5.310e+0, 2.160e-8
5.340e+0, 2.174e-8
5.370e+0, 2.162e-8
5.400e+0, 2.174e-8
5.430e+0, 2.151e-8
5.460e+0, 2.154e-8
5.490e+0, 2.088e-8
5.520e+0, 2.248e-8
5.550e+0, 1.951e-8
5.580e+0, 2.047e-8
5.610e+0, 2.078e-8
5.640e+0, 2.095e-8
5.670e+0, 2.083e-8
5.700e+0, 2.093e-8
5.730e+0, 2.083e-8
5.760e+0, 2.084e-8
5.790e+0, 2.121e-8
5.820e+0, 2.136e-8
5.850e+0, 2.143e-8
5.880e+0, 2.162e-8
5.910e+0, 2.173e-8
5.940e+0, 2.170e-8
5.970e+0, 2.155e-8
6.000e+0, 2.156e-8
6.030e+0, 2.115e-8
6.060e+0, 2.122e-8
6.090e+0, 2.101e-8
6.120e+0, 2.165e-8
6.150e+0, 2.151e-8
6.180e+0, 2.192e-8
6.210e+0, 2.084e-8
6.240e+0, 2.064e-8
6.270e+0, 2.173e-8
6.300e+0, 2.171e-8
6.330e+0, 2.129e-8
6.360e+0, 2.140e-8
6.390e+0, 2.085e-8
6.420e+0, 2.098e-8
6.450e+0, 2.101e-8
6.480e+0, 2.105e-8
6.510e+0, 2.128e-8
6.540e+0, 2.122e-8
6.570e+0, 2.103e-8
6.600e+0, 2.109e-8
6.630e+0, 2.107e-8
6.660e+0, 2.108e-8
6.690e+0, 2.106e-8
6.720e+0, 2.107e-8
6.750e+0, 2.104e-8
6.780e+0, 2.107e-8
6.810e+0, 2.116e-8
6.840e+0, 2.118e-8
6.870e+0, 2.117e-8
6.900e+0, 2.143e-8
6.930e+0, 1.852e-8
6.960e+0, 1.970e-8
6.990e+0, 2.096e-8
7.020e+0, 2.003e-8
7.050e+0, 2.029e-8
7.080e+0, 2.036e-8
7.110e+0, 2.088e-8
7.140e+0, 2.076e-8
7.170e+0, 2.092e-8
7.200e+0, 2.104e-8
7.230e+0, 2.088e-8
7.260e+0, 2.082e-8
7.290e+0, 2.069e-8
7.320e+0, 2.095e-8
7.350e+0, 2.098e-8
7.380e+0, 2.082e-8
7.410e+0, 2.088e-8
7.440e+0, 2.087e-8
7.470e+0, 2.099e-8
7.500e+0, 2.099e-8
7.530e+0, 2.081e-8
7.560e+0, 2.082e-8
7.590e+0, 2.050e-8
7.620e+0, 2.133e-8
7.650e+0, 2.020e-8
7.680e+0, 1.980e-8
7.710e+0, 1.916e-8
7.740e+0, 2.066e-8
7.770e+0, 1.893e-8
7.800e+0, 1.921e-8
7.830e+0, 2.092e-8
7.860e+0, 2.056e-8
7.890e+0, 2.044e-8
7.920e+0, 2.042e-8
7.950e+0, 2.039e-8
7.980e+0, 2.038e-8
8.010e+0, 2.109e-8
8.040e+0, 2.106e-8
8.070e+0, 2.103e-8
8.100e+0, 2.097e-8
8.130e+0, 2.104e-8
8.160e+0, 2.120e-8
8.190e+0, 2.115e-8
8.220e+0, 2.125e-8
8.250e+0, 2.105e-8
8.280e+0, 2.121e-8
8.310e+0, 2.102e-8
8.340e+0, 2.110e-8
8.370e+0, 2.174e-8
8.400e+0, 2.016e-8
8.430e+0, 2.144e-8
8.460e+0, 2.125e-8
8.490e+0, 2.062e-8
8.520e+0, 2.096e-8
8.550e+0, 2.132e-8
8.580e+0, 2.021e-8
8.610e+0, 2.072e-8
8.640e+0, 2.100e-8
8.670e+0, 2.073e-8
8.700e+0, 2.079e-8
8.730e+0, 2.060e-8
8.760e+0, 2.062e-8
8.790e+0, 2.065e-8
8.820e+0, 2.066e-8
8.850e+0, 2.085e-8
8.880e+0, 2.105e-8
8.910e+0, 2.094e-8
8.940e+0, 2.098e-8
8.970e+0, 2.117e-8
9.000e+0, 2.103e-8
9.030e+0, 2.091e-8
9.060e+0, 2.108e-8
9.090e+0, 2.119e-8
9.120e+0, 2.097e-8
9.150e+0, 1.865e-8
9.180e+0, 1.967e-8
9.210e+0, 2.204e-8
9.240e+0, 2.058e-8
9.270e+0, 2.015e-8
9.300e+0, 2.018e-8
9.330e+0, 2.049e-8
9.360e+0, 2.020e-8
9.390e+0, 2.088e-8
9.420e+0, 2.072e-8
9.450e+0, 2.077e-8
9.480e+0, 2.061e-8
9.510e+0, 2.056e-8
9.540e+0, 2.065e-8
9.570e+0, 2.073e-8
9.600e+0, 2.073e-8
9.630e+0, 2.080e-8
9.660e+0, 2.108e-8
9.690e+0, 2.115e-8
9.720e+0, 2.141e-8
9.750e+0, 2.140e-8
9.780e+0, 2.130e-8
9.810e+0, 2.071e-8
9.840e+0, 2.065e-8
9.870e+0, 2.136e-8
9.900e+0, 2.055e-8
9.930e+0, 2.015e-8
9.960e+0, 2.013e-8
9.990e+0, 2.175e-8
1.002e+1, 2.077e-8
1.005e+1, 2.082e-8
1.008e+1, 2.098e-8
1.011e+1, 2.145e-8
1.014e+1, 2.131e-8
1.017e+1, 2.127e-8
1.020e+1, 2.117e-8
1.023e+1, 2.119e-8
1.026e+1, 2.115e-8
1.029e+1, 2.118e-8
1.032e+1, 2.107e-8
1.035e+1, 2.118e-8
1.038e+1, 2.108e-8
1.041e+1, 2.117e-8
1.044e+1, 2.110e-8
1.047e+1, 2.066e-8
1.050e+1, 2.053e-8
1.053e+1, 2.156e-8
1.056e+1, 2.106e-8
1.059e+1, 2.136e-8
1.062e+1, 2.126e-8
1.065e+1, 2.119e-8
1.068e+1, 2.139e-8
1.071e+1, 2.147e-8
1.074e+1, 2.130e-8
1.077e+1, 2.122e-8
1.080e+1, 2.084e-8
1.083e+1, 1.941e-8
1.086e+1, 1.964e-8
1.089e+1, 1.989e-8
1.092e+1, 2.072e-8
1.095e+1, 2.168e-8
1.098e+1, 2.154e-8
1.101e+1, 2.148e-8
1.104e+1, 2.129e-8
1.107e+1, 2.134e-8
1.110e+1, 2.126e-8
1.113e+1, 2.132e-8
1.116e+1, 2.119e-8
1.119e+1, 2.125e-8
1.122e+1, 2.111e-8
1.125e+1, 2.129e-8
1.128e+1, 2.120e-8
1.131e+1, 2.107e-8
1.134e+1, 2.096e-8
1.137e+1, 2.122e-8
1.140e+1, 2.091e-8
1.143e+1, 2.071e-8
1.146e+1, 2.087e-8
1.149e+1, 2.168e-8
1.152e+1, 2.125e-8
1.155e+1, 2.071e-8
1.158e+1, 2.073e-8
1.161e+1, 2.093e-8
1.164e+1, 2.067e-8
1.167e+1, 2.121e-8
1.170e+1, 2.077e-8
1.173e+1, 2.103e-8
1.176e+1, 2.073e-8
1.179e+1, 2.068e-8
1.182e+1, 2.061e-8
1.185e+1, 2.095e-8
1.188e+1, 2.094e-8
1.191e+1, 2.087e-8
1.194e+1, 2.069e-8
1.197e+1, 2.095e-8
1.200e+1, 2.074e-8
1.203e+1, 2.096e-8
1.206e+1, 2.077e-8
1.209e+1, 2.110e-8
1.212e+1, 2.105e-8
1.215e+1, 2.094e-8
1.218e+1, 2.079e-8
1.221e+1, 2.097e-8
1.224e+1, 2.103e-8
1.227e+1, 2.136e-8
1.230e+1, 2.126e-8
1.233e+1, 2.132e-8
1.236e+1, 2.117e-8
1.239e+1, 2.123e-8
1.242e+1, 2.112e-8
1.245e+1, 2.078e-8
1.248e+1, 2.078e-8
1.251e+1, 2.106e-8
1.254e+1, 2.088e-8
1.257e+1, 2.090e-8
1.260e+1, 2.087e-8
1.263e+1, 2.097e-8
1.266e+1, 2.086e-8
1.269e+1, 2.108e-8
1.272e+1, 2.090e-8
1.275e+1, 2.109e-8
1.278e+1, 2.076e-8
1.281e+1, 2.086e-8
1.284e+1, 2.037e-8
1.287e+1, 2.001e-8
1.290e+1, 2.072e-8
1.293e+1, 2.131e-8
1.296e+1, 1.966e-8
1.299e+1, 1.955e-8
1.302e+1, 2.065e-8
1.305e+1, 2.117e-8
1.308e+1, 2.120e-8
1.311e+1, 2.142e-8
1.314e+1, 2.107e-8
1.317e+1, 2.150e-8
1.320e+1, 2.079e-8
1.323e+1, 2.113e-8
1.326e+1, 2.091e-8
1.329e+1, 2.105e-8
1.332e+1, 2.072e-8
1.335e+1, 2.095e-8
1.338e+1, 2.093e-8
1.341e+1, 2.135e-8
1.344e+1, 2.108e-8
1.347e+1, 2.140e-8
1.350e+1, 2.019e-8
1.353e+1, 2.168e-8
1.356e+1, 2.047e-8
1.359e+1, 2.109e-8
1.362e+1, 2.039e-8
1.365e+1, 2.138e-8
1.368e+1, 2.013e-8
1.371e+1, 2.004e-8
1.374e+1, 1.977e-8
1.377e+1, 2.083e-8
1.380e+1, 2.089e-8
1.383e+1, 2.108e-8
1.386e+1, 2.096e-8
1.389e+1, 2.092e-8
1.392e+1, 2.129e-8
1.395e+1, 2.151e-8
1.398e+1, 2.117e-8
1.401e+1, 2.132e-8
1.404e+1, 2.117e-8
1.407e+1, 2.137e-8
1.410e+1, 2.111e-8
1.413e+1, 2.122e-8
1.416e+1, 2.120e-8
1.419e+1, 2.125e-8
1.422e+1, 2.110e-8
1.425e+1, 2.149e-8
1.428e+1, 2.107e-8
1.431e+1, 2.116e-8
1.434e+1, 2.083e-8
1.437e+1, 2.102e-8
1.440e+1, 2.104e-8
1.443e+1, 2.037e-8
1.446e+1, 2.049e-8
1.449e+1, 2.089e-8
1.452e+1, 2.089e-8
1.455e+1, 2.119e-8
1.458e+1, 2.101e-8
1.461e+1, 2.113e-8
1.464e+1, 2.111e-8
1.467e+1, 2.131e-8
1.470e+1, 2.090e-8
1.473e+1, 2.125e-8
1.476e+1, 2.141e-8
1.479e+1, 2.123e-8
1.482e+1, 2.096e-8
1.485e+1, 2.132e-8
1.488e+1, 2.106e-8
1.491e+1, 2.133e-8
1.494e+1, 2.118e-8
1.497e+1, 2.140e-8
1.500e+1, 2.109e-8
1.503e+1, 2.132e-8
1.506e+1, 2.088e-8
1.509e+1, 2.103e-8
1.512e+1, 2.090e-8
1.515e+1, 2.177e-8
1.518e+1, 2.069e-8
1.521e+1, 2.054e-8
1.524e+1, 2.049e-8
1.527e+1, 2.088e-8
1.530e+1, 2.068e-8
1.533e+1, 2.093e-8
1.536e+1, 2.083e-8
1.539e+1, 2.124e-8
1.542e+1, 2.101e-8
1.545e+1, 2.122e-8
1.548e+1, 2.092e-8
1.551e+1, 2.131e-8
1.554e+1, 2.128e-8
1.557e+1, 2.139e-8
1.560e+1, 2.115e-8
1.563e+1, 2.138e-8
1.566e+1, 2.098e-8
1.569e+1, 2.133e-8
1.572e+1, 2.109e-8
1.575e+1, 2.119e-8
1.578e+1, 2.109e-8
1.581e+1, 2.129e-8
1.584e+1, 2.080e-8
1.587e+1, 2.123e-8
1.590e+1, 2.014e-8
1.593e+1, 2.055e-8
1.596e+1, 2.079e-8
1.599e+1, 2.089e-8
1.602e+1, 2.094e-8
1.605e+1, 2.119e-8
1.608e+1, 2.100e-8
1.611e+1, 2.126e-8
1.614e+1, 2.112e-8
1.617e+1, 2.122e-8
1.620e+1, 2.078e-8
1.623e+1, 2.109e-8
1.626e+1, 2.090e-8
1.629e+1, 2.149e-8
1.632e+1, 2.113e-8
1.635e+1, 2.134e-8
1.638e+1, 2.118e-8
1.641e+1, 2.137e-8
1.644e+1, 2.107e-8
1.647e+1, 2.122e-8
1.650e+1, 2.095e-8
1.653e+1, 2.111e-8
1.656e+1, 2.101e-8
1.659e+1, 2.129e-8
1.662e+1, 2.105e-8
1.665e+1, 2.159e-8
1.668e+1, 1.956e-8
1.671e+1, 1.988e-8
1.674e+1, 2.046e-8
1.677e+1, 2.065e-8
1.680e+1, 2.077e-8
1.683e+1, 2.095e-8
1.686e+1, 2.078e-8
1.689e+1, 2.106e-8
1.692e+1, 2.100e-8
1.695e+1, 2.116e-8
1.698e+1, 2.114e-8
1.701e+1, 2.135e-8
1.704e+1, 2.113e-8
1.707e+1, 2.129e-8
1.710e+1, 2.104e-8
1.713e+1, 2.122e-8
1.716e+1, 2.097e-8
1.719e+1, 2.131e-8
1.722e+1, 2.111e-8
1.725e+1, 2.109e-8
1.728e+1, 2.086e-8
1.731e+1, 2.102e-8
1.734e+1, 2.110e-8
1.737e+1, 2.106e-8
1.740e+1, 2.056e-8
1.743e+1, 2.205e-8
1.746e+1, 1.969e-8
1.749e+1, 1.984e-8
1.752e+1, 2.050e-8
1.755e+1, 2.091e-8
1.758e+1, 2.053e-8
1.761e+1, 2.078e-8
1.764e+1, 2.091e-8
1.767e+1, 2.081e-8
1.770e+1, 2.082e-8
1.773e+1, 2.099e-8
1.776e+1, 2.092e-8
1.779e+1, 2.125e-8
1.782e+1, 2.079e-8
1.785e+1, 2.121e-8
1.788e+1, 2.084e-8
1.791e+1, 2.115e-8
1.794e+1, 2.098e-8
1.797e+1, 2.099e-8
1.800e+1, 2.065e-8
1.803e+1, 2.076e-8
1.806e+1, 1.848e-8
1.809e+1, 1.922e-8
1.812e+1, 2.096e-8
1.815e+1, 2.065e-8
1.818e+1, 1.999e-8
1.821e+1, 1.986e-8
1.824e+1, 1.906e-8
1.827e+1, 1.917e-8
1.830e+1, 2.000e-8
1.833e+1, 2.011e-8
1.836e+1, 2.066e-8
1.839e+1, 2.089e-8
1.842e+1, 2.169e-8
1.845e+1, 2.160e-8
1.848e+1, 2.056e-8
1.851e+1, 2.055e-8
1.854e+1, 2.097e-8
1.857e+1, 2.130e-8
1.860e+1, 2.116e-8
1.863e+1, 2.126e-8
1.866e+1, 2.115e-8
1.869e+1, 2.121e-8
1.872e+1, 2.129e-8
1.875e+1, 2.137e-8
1.878e+1, 2.123e-8
1.881e+1, 2.132e-8
1.884e+1, 2.123e-8
1.887e+1, 2.139e-8
1.890e+1, 2.112e-8
1.893e+1, 1.874e-8
1.896e+1, 1.971e-8
1.899e+1, 2.086e-8
1.902e+1, 2.101e-8
1.905e+1, 2.118e-8
1.908e+1, 2.065e-8
1.911e+1, 2.083e-8
1.914e+1, 2.112e-8
1.917e+1, 2.128e-8
1.920e+1, 2.103e-8
1.923e+1, 2.116e-8
1.926e+1, 2.100e-8
1.929e+1, 2.110e-8
1.932e+1, 2.117e-8
1.935e+1, 2.108e-8
1.938e+1, 2.111e-8
1.941e+1, 2.127e-8
1.944e+1, 2.105e-8
1.947e+1, 2.112e-8
1.950e+1, 2.097e-8
1.953e+1, 2.120e-8
1.956e+1, 2.089e-8
1.959e+1, 2.087e-8
1.962e+1, 2.074e-8
1.965e+1, 2.120e-8
1.968e+1, 1.906e-8
1.971e+1, 1.992e-8
1.974e+1, 2.117e-8
1.977e+1, 2.094e-8
1.980e+1, 2.030e-8
1.983e+1, 1.943e-8
1.986e+1, 2.003e-8
1.989e+1, 2.052e-8
1.992e+1, 2.058e-8
1.995e+1, 2.042e-8
1.998e+1, 2.046e-8
2.001e+1, 2.051e-8
2.004e+1, 2.098e-8
2.007e+1, 2.089e-8
2.010e+1, 2.081e-8
2.013e+1, 2.079e-8
2.016e+1, 2.079e-8
2.019e+1, 2.115e-8
2.022e+1, 2.086e-8
2.025e+1, 2.084e-8
2.028e+1, 2.078e-8
2.031e+1, 2.090e-8
2.034e+1, 2.077e-8
2.037e+1, 2.122e-8
2.040e+1, 1.944e-8
2.043e+1, 2.040e-8
2.046e+1, 2.053e-8
2.049e+1, 2.084e-8
2.052e+1, 1.987e-8
2.055e+1, 2.008e-8
2.058e+1, 2.029e-8
2.061e+1, 2.024e-8
2.064e+1, 2.041e-8
2.067e+1, 2.055e-8
2.070e+1, 2.061e-8
2.073e+1, 2.068e-8
2.076e+1, 2.063e-8
2.079e+1, 2.091e-8
2.082e+1, 2.120e-8
2.085e+1, 2.118e-8
2.088e+1, 2.110e-8
2.091e+1, 2.114e-8
2.094e+1, 2.111e-8
2.097e+1, 2.112e-8
2.100e+1, 2.099e-8
2.103e+1, 2.121e-8
2.106e+1, 2.090e-8
2.109e+1, 2.075e-8
2.112e+1, 2.049e-8
2.115e+1, 2.095e-8
2.118e+1, 1.958e-8
2.121e+1, 2.039e-8
2.124e+1, 2.117e-8
2.127e+1, 2.112e-8
2.130e+1, 2.091e-8
2.133e+1, 2.093e-8
2.136e+1, 2.132e-8
2.139e+1, 2.120e-8
2.142e+1, 2.085e-8
2.145e+1, 2.092e-8
2.148e+1, 2.090e-8
2.151e+1, 2.086e-8
2.154e+1, 2.115e-8
2.157e+1, 2.108e-8
2.160e+1, 2.108e-8
2.163e+1, 2.118e-8
2.166e+1, 2.093e-8
2.169e+1, 2.100e-8
2.172e+1, 2.093e-8
2.175e+1, 2.081e-8
2.178e+1, 2.081e-8
2.181e+1, 2.071e-8
2.184e+1, 2.084e-8
2.187e+1, 2.077e-8
2.190e+1, 1.887e-8
2.193e+1, 2.007e-8
2.196e+1, 2.094e-8
2.199e+1, 2.085e-8
2.202e+1, 2.094e-8
2.205e+1, 2.084e-8
2.208e+1, 2.076e-8
2.211e+1, 2.095e-8
2.214e+1, 2.083e-8
2.217e+1, 2.092e-8
2.220e+1, 2.074e-8
2.223e+1, 2.081e-8
2.226e+1, 2.073e-8
2.229e+1, 2.077e-8
2.232e+1, 2.074e-8
2.235e+1, 2.094e-8
2.238e+1, 2.073e-8
2.241e+1, 2.072e-8
2.244e+1, 2.038e-8
2.247e+1, 2.059e-8
2.250e+1, 1.836e-8
2.253e+1, 1.591e-8
2.256e+1, 2.261e-8
2.259e+1, 2.089e-8
2.262e+1, 1.935e-8
2.265e+1, 1.894e-8
2.268e+1, 1.975e-8
2.271e+1, 2.156e-8
2.274e+1, 2.088e-8
2.277e+1, 2.089e-8
2.280e+1, 2.090e-8
2.283e+1, 2.172e-8
2.286e+1, 2.160e-8
2.289e+1, 2.159e-8
2.292e+1, 2.137e-8
2.295e+1, 2.149e-8
2.298e+1, 2.104e-8
2.301e+1, 2.201e-8
2.304e+1, 2.264e-8
2.307e+1, 2.146e-8
2.310e+1, 2.749e-8
2.313e+1, 2.894e-8
2.316e+1, 2.881e-8
2.319e+1, 2.808e-8
2.322e+1, 2.675e-8
2.325e+1, 2.556e-8
2.328e+1, 2.568e-8
2.331e+1, 2.539e-8
2.334e+1, 2.034e-8
2.337e+1, 2.490e-8
2.340e+1, 2.396e-8
2.343e+1, 2.447e-8
2.346e+1, 2.433e-8
2.349e+1, 2.493e-8
2.352e+1, 2.451e-8
2.355e+1, 2.513e-8
2.358e+1, 2.483e-8
2.361e+1, 2.547e-8
2.364e+1, 2.480e-8
2.367e+1, 2.481e-8
2.370e+1, 2.585e-8
2.373e+1, 2.646e-8
2.376e+1, 2.621e-8
2.379e+1, 2.558e-8
2.382e+1, 2.619e-8
2.385e+1, 2.542e-8
2.388e+1, 2.566e-8
2.391e+1, 2.495e-8
2.394e+1, 2.654e-8
2.397e+1, 2.454e-8
2.400e+1, 2.435e-8
2.403e+1, 2.462e-8
2.406e+1, 2.351e-8
2.409e+1, 2.420e-8
2.412e+1, 2.536e-8
2.415e+1, 2.526e-8
2.418e+1, 2.492e-8
2.421e+1, 2.523e-8
2.424e+1, 2.487e-8
2.427e+1, 2.506e-8
2.430e+1, 2.497e-8
2.433e+1, 2.490e-8
2.436e+1, 2.475e-8
2.439e+1, 2.460e-8
2.442e+1, 2.460e-8
2.445e+1, 2.419e-8
2.448e+1, 2.423e-8
2.451e+1, 2.379e-8
2.454e+1, 2.404e-8
2.457e+1, 2.479e-8
2.460e+1, 2.461e-8
2.463e+1, 2.428e-8
2.466e+1, 2.441e-8
2.469e+1, 2.397e-8
2.472e+1, 2.399e-8
2.475e+1, 2.334e-8
2.478e+1, 2.194e-8
2.481e+1, 2.293e-8
2.484e+1, 2.375e-8
2.487e+1, 2.348e-8
2.490e+1, 2.324e-8
2.493e+1, 2.294e-8
2.496e+1, 2.300e-8
2.499e+1, 2.254e-8
2.502e+1, 2.265e-8
2.505e+1, 2.262e-8
2.508e+1, 2.285e-8
2.511e+1, 2.258e-8
2.514e+1, 2.253e-8
2.517e+1, 2.259e-8
2.520e+1, 2.245e-8
2.523e+1, 2.234e-8
2.526e+1, 2.226e-8
2.529e+1, 2.224e-8
2.532e+1, 2.250e-8
2.535e+1, 2.204e-8
2.538e+1, 2.229e-8
2.541e+1, 2.190e-8
2.544e+1, 2.184e-8
2.547e+1, 2.183e-8
2.550e+1, 2.044e-8
2.553e+1, 2.138e-8
2.556e+1, 2.182e-8
2.559e+1, 2.126e-8
2.562e+1, 2.146e-8
2.565e+1, 2.136e-8
2.568e+1, 2.135e-8
2.571e+1, 2.120e-8
2.574e+1, 2.151e-8
2.577e+1, 2.141e-8
2.580e+1, 2.132e-8
2.583e+1, 2.126e-8
2.586e+1, 2.186e-8
2.589e+1, 2.175e-8
2.592e+1, 2.165e-8
2.595e+1, 2.158e-8
2.598e+1, 2.172e-8
2.601e+1, 2.145e-8
2.604e+1, 2.147e-8
2.607e+1, 2.187e-8
2.610e+1, 2.162e-8
2.613e+1, 2.171e-8
2.616e+1, 2.144e-8
2.619e+1, 2.127e-8
2.622e+1, 2.108e-8
2.625e+1, 2.090e-8
2.628e+1, 2.173e-8
2.631e+1, 2.134e-8
2.634e+1, 2.144e-8
2.637e+1, 2.154e-8
2.640e+1, 2.143e-8
2.643e+1, 2.099e-8
2.646e+1, 2.113e-8
2.649e+1, 2.120e-8
2.652e+1, 2.137e-8
2.655e+1, 2.129e-8
2.658e+1, 2.150e-8
2.661e+1, 2.132e-8
2.664e+1, 2.169e-8
2.667e+1, 2.183e-8
2.670e+1, 2.156e-8
2.673e+1, 2.146e-8
2.676e+1, 2.148e-8
2.679e+1, 2.120e-8
2.682e+1, 2.132e-8
2.685e+1, 2.129e-8
2.688e+1, 2.148e-8
2.691e+1, 2.164e-8
2.694e+1, 2.107e-8
2.697e+1, 2.033e-8
2.700e+1, 2.075e-8
2.703e+1, 2.091e-8
2.706e+1, 2.100e-8
2.709e+1, 2.154e-8
2.712e+1, 2.176e-8
2.715e+1, 2.109e-8
2.718e+1, 2.074e-8
2.721e+1, 2.079e-8
2.724e+1, 2.067e-8
2.727e+1, 2.052e-8
2.730e+1, 2.087e-8
2.733e+1, 2.136e-8
2.736e+1, 2.185e-8
2.739e+1, 2.164e-8
2.742e+1, 2.161e-8
2.745e+1, 2.148e-8
2.748e+1, 2.154e-8
2.751e+1, 2.148e-8
2.754e+1, 2.142e-8
2.757e+1, 2.175e-8
2.760e+1, 2.147e-8
2.763e+1, 2.167e-8
2.766e+1, 2.141e-8
2.769e+1, 2.138e-8
2.772e+1, 2.029e-8
2.775e+1, 2.001e-8
2.778e+1, 2.089e-8
2.781e+1, 2.178e-8
2.784e+1, 2.083e-8
2.787e+1, 2.086e-8
2.790e+1, 2.110e-8
2.793e+1, 2.117e-8
2.796e+1, 2.119e-8
2.799e+1, 2.159e-8
2.802e+1, 2.151e-8
2.805e+1, 2.101e-8
2.808e+1, 2.109e-8
2.811e+1, 2.111e-8
2.814e+1, 2.120e-8
2.817e+1, 2.098e-8
2.820e+1, 2.117e-8
2.823e+1, 2.123e-8
2.826e+1, 2.040e-8
2.829e+1, 2.006e-8
2.832e+1, 1.978e-8
2.835e+1, 1.822e-8
2.838e+1, 2.231e-8
2.841e+1, 1.777e-8
2.844e+1, 1.998e-8
2.847e+1, 1.721e-8
2.850e+1, 1.705e-8
2.853e+1, 1.807e-8
2.856e+1, 1.934e-8
2.859e+1, 2.207e-8
2.862e+1, 2.292e-8
2.865e+1, 1.862e-8
2.868e+1, 2.036e-8
2.871e+1, 2.182e-8
2.874e+1, 2.306e-8
2.877e+1, 2.224e-8
2.880e+1, 2.252e-8
2.883e+1, 2.214e-8
2.886e+1, 2.095e-8
2.889e+1, 2.171e-8
2.892e+1, 2.140e-8
2.895e+1, 2.132e-8
2.898e+1, 2.087e-8
2.901e+1, 2.100e-8
2.904e+1, 2.152e-8
2.907e+1, 2.122e-8
2.910e+1, 2.097e-8
2.913e+1, 2.059e-8
2.916e+1, 2.264e-8
2.919e+1, 1.787e-8
2.922e+1, 1.812e-8
2.925e+1, 1.890e-8
2.928e+1, 1.961e-8
2.931e+1, 2.000e-8
2.934e+1, 2.054e-8
2.937e+1, 2.116e-8
2.940e+1, 2.184e-8
2.943e+1, 2.233e-8
2.946e+1, 2.327e-8
2.949e+1, 2.267e-8
2.952e+1, 2.193e-8
2.955e+1, 2.105e-8
2.958e+1, 2.133e-8
2.961e+1, 2.177e-8
2.964e+1, 2.198e-8
2.967e+1, 2.199e-8
2.970e+1, 2.170e-8
2.973e+1, 2.252e-8
2.976e+1, 2.274e-8
2.979e+1, 2.130e-8
2.982e+1, 2.130e-8
2.985e+1, 2.115e-8
2.988e+1, 2.238e-8
2.991e+1, 2.080e-8
2.994e+1, 1.969e-8
2.997e+1, 2.220e-8
3.000e+1, 2.309e-8
3.003e+1, 2.313e-8
3.006e+1, 2.293e-8
3.009e+1, 2.272e-8
3.012e+1, 2.243e-8
3.015e+1, 2.233e-8
3.018e+1, 2.237e-8
3.021e+1, 2.223e-8
3.024e+1, 2.234e-8
3.027e+1, 2.210e-8
3.030e+1, 2.183e-8
3.033e+1, 2.143e-8
3.036e+1, 2.102e-8
3.039e+1, 3.146e-9
3.042e+1, 4.146e-9
3.045e+1, 3.437e-9
3.048e+1, 4.648e-9
3.051e+1, 5.161e-9
3.054e+1, 5.664e-9
3.057e+1, 1.526e-9
3.060e+1, 1.828e-8
3.063e+1, 1.219e-8
3.066e+1, 1.058e-8
3.069e+1, 2.097e-9
3.072e+1, 2.307e-8
3.075e+1, 2.092e-8
3.078e+1, 2.055e-8
3.081e+1, 2.094e-8
3.084e+1, 1.929e-8
3.087e+1, 1.612e-8
3.090e+1, 1.763e-8
3.093e+1, 1.322e-8
3.096e+1, 1.525e-8
3.099e+1, 2.512e-8
3.102e+1, 1.196e-8
3.105e+1, 2.164e-8
3.108e+1, 1.999e-8
3.111e+1, 1.895e-8
3.114e+1, 1.932e-8
3.117e+1, 1.923e-8
3.120e+1, 1.942e-8
3.123e+1, 1.903e-8
3.126e+1, 1.906e-8
3.129e+1, 1.869e-8
3.132e+1, 1.883e-8
3.135e+1, 1.851e-8
3.138e+1, 1.877e-8
