July 5, 2024   00:13:37
Amperometric i-t Curve
File: 0.3-0.02
Data Source:  Experiment
Instrument Model:  CHI760E
Header: 
Note: 

Init E (V) = 0.3
Sample Interval (s) = 0.02
Run Time (sec) = 4e+3
Quiet Time (sec) = 0
Sensitivity (A/V) = 1e-4

Results:

Channel 1:

Time/sec, Current/A

2.000e-2, 9.047e-5
4.000e-2, 9.075e-5
6.000e-2, 9.092e-5
8.000e-2, 9.145e-5
1.000e-1, 9.188e-5
1.200e-1, 9.220e-5
1.400e-1, 9.254e-5
1.600e-1, 9.281e-5
1.800e-1, 9.309e-5
2.000e-1, 9.319e-5
2.200e-1, 9.348e-5
2.400e-1, 9.367e-5
2.600e-1, 9.378e-5
2.800e-1, 9.395e-5
3.000e-1, 9.410e-5
3.200e-1, 9.428e-5
3.400e-1, 9.447e-5
3.600e-1, 9.470e-5
3.800e-1, 9.487e-5
4.000e-1, 9.494e-5
4.200e-1, 9.498e-5
4.400e-1, 9.530e-5
4.600e-1, 9.550e-5
4.800e-1, 9.571e-5
5.000e-1, 9.595e-5
5.200e-1, 9.611e-5
5.400e-1, 9.598e-5
5.600e-1, 9.601e-5
5.800e-1, 9.657e-5
6.000e-1, 9.709e-5
6.200e-1, 9.738e-5
6.400e-1, 9.754e-5
6.600e-1, 9.776e-5
6.800e-1, 9.796e-5
7.000e-1, 9.842e-5
7.200e-1, 9.877e-5
7.400e-1, 9.892e-5
7.600e-1, 9.908e-5
7.800e-1, 9.931e-5
8.000e-1, 9.961e-5
8.200e-1, 9.977e-5
8.400e-1, 9.964e-5
8.600e-1, 9.949e-5
8.800e-1, 9.949e-5
9.000e-1, 9.953e-5
9.200e-1, 9.923e-5
9.400e-1, 9.882e-5
9.600e-1, 9.823e-5
9.800e-1, 9.785e-5
1.000e+0, 9.803e-5
1.020e+0, 9.828e-5
1.040e+0, 9.855e-5
1.060e+0, 9.885e-5
1.080e+0, 9.904e-5
1.100e+0, 9.920e-5
1.120e+0, 9.946e-5
1.140e+0, 9.966e-5
1.160e+0, 9.986e-5
1.180e+0, 1.004e-4
1.200e+0, 1.008e-4
1.220e+0, 1.011e-4
1.240e+0, 1.013e-4
1.260e+0, 1.014e-4
1.280e+0, 1.016e-4
1.300e+0, 1.016e-4
1.320e+0, 1.019e-4
1.340e+0, 1.022e-4
1.360e+0, 1.024e-4
1.380e+0, 1.026e-4
1.400e+0, 1.030e-4
1.420e+0, 1.032e-4
1.440e+0, 1.036e-4
1.460e+0, 1.038e-4
1.480e+0, 1.039e-4
1.500e+0, 1.042e-4
1.520e+0, 1.043e-4
1.540e+0, 1.046e-4
1.560e+0, 1.047e-4
1.580e+0, 1.047e-4
1.600e+0, 1.048e-4
1.620e+0, 1.049e-4
1.640e+0, 1.051e-4
1.660e+0, 1.051e-4
1.680e+0, 1.050e-4
1.700e+0, 1.051e-4
1.720e+0, 1.051e-4
1.740e+0, 1.051e-4
1.760e+0, 1.051e-4
1.780e+0, 1.046e-4
1.800e+0, 1.045e-4
1.820e+0, 1.049e-4
1.840e+0, 1.050e-4
1.860e+0, 1.051e-4
1.880e+0, 1.051e-4
1.900e+0, 1.054e-4
1.920e+0, 1.052e-4
1.940e+0, 1.053e-4
1.960e+0, 1.054e-4
1.980e+0, 1.053e-4
2.000e+0, 1.057e-4
2.020e+0, 1.061e-4
2.040e+0, 1.062e-4
2.060e+0, 1.059e-4
2.080e+0, 1.058e-4
2.100e+0, 1.063e-4
2.120e+0, 1.067e-4
2.140e+0, 1.068e-4
2.160e+0, 1.077e-4
2.180e+0, 1.078e-4
2.200e+0, 1.079e-4
2.220e+0, 1.082e-4
2.240e+0, 1.086e-4
2.260e+0, 1.088e-4
2.280e+0, 1.087e-4
2.300e+0, 1.087e-4
2.320e+0, 1.090e-4
2.340e+0, 1.092e-4
2.360e+0, 1.087e-4
2.380e+0, 1.085e-4
2.400e+0, 1.086e-4
2.420e+0, 1.086e-4
2.440e+0, 1.092e-4
2.460e+0, 1.090e-4
2.480e+0, 1.088e-4
2.500e+0, 1.088e-4
2.520e+0, 1.090e-4
2.540e+0, 1.090e-4
2.560e+0, 1.089e-4
2.580e+0, 1.089e-4
2.600e+0, 1.087e-4
2.620e+0, 1.088e-4
2.640e+0, 1.090e-4
2.660e+0, 1.091e-4
2.680e+0, 1.092e-4
2.700e+0, 1.093e-4
2.720e+0, 1.094e-4
2.740e+0, 1.097e-4
2.760e+0, 1.097e-4
2.780e+0, 1.096e-4
2.800e+0, 1.095e-4
2.820e+0, 1.098e-4
2.840e+0, 1.102e-4
2.860e+0, 1.103e-4
2.880e+0, 1.104e-4
2.900e+0, 1.105e-4
2.920e+0, 1.108e-4
2.940e+0, 1.112e-4
2.960e+0, 1.114e-4
2.980e+0, 1.115e-4
3.000e+0, 1.118e-4
3.020e+0, 1.120e-4
3.040e+0, 1.122e-4
3.060e+0, 1.124e-4
3.080e+0, 1.123e-4
3.100e+0, 1.125e-4
3.120e+0, 1.126e-4
3.140e+0, 1.127e-4
3.160e+0, 1.128e-4
3.180e+0, 1.129e-4
3.200e+0, 1.129e-4
3.220e+0, 1.127e-4
3.240e+0, 1.127e-4
3.260e+0, 1.128e-4
3.280e+0, 1.128e-4
3.300e+0, 1.126e-4
3.320e+0, 1.128e-4
3.340e+0, 1.129e-4
3.360e+0, 1.130e-4
3.380e+0, 1.130e-4
3.400e+0, 1.130e-4
3.420e+0, 1.130e-4
3.440e+0, 1.131e-4
3.460e+0, 1.132e-4
3.480e+0, 1.135e-4
3.500e+0, 1.134e-4
3.520e+0, 1.135e-4
3.540e+0, 1.134e-4
3.560e+0, 1.134e-4
3.580e+0, 1.134e-4
3.600e+0, 1.133e-4
3.620e+0, 1.134e-4
3.640e+0, 1.135e-4
3.660e+0, 1.133e-4
3.680e+0, 1.132e-4
3.700e+0, 1.132e-4
3.720e+0, 1.135e-4
3.740e+0, 1.136e-4
3.760e+0, 1.139e-4
3.780e+0, 1.141e-4
3.800e+0, 1.145e-4
3.820e+0, 1.148e-4
3.840e+0, 1.150e-4
3.860e+0, 1.150e-4
3.880e+0, 1.150e-4
3.900e+0, 1.150e-4
3.920e+0, 1.151e-4
3.940e+0, 1.152e-4
3.960e+0, 1.154e-4
3.980e+0, 1.155e-4
4.000e+0, 1.157e-4
4.020e+0, 1.159e-4
4.040e+0, 1.158e-4
4.060e+0, 1.156e-4
4.080e+0, 1.156e-4
4.100e+0, 1.158e-4
4.120e+0, 1.159e-4
4.140e+0, 1.159e-4
4.160e+0, 1.160e-4
4.180e+0, 1.161e-4
4.200e+0, 1.161e-4
4.220e+0, 1.161e-4
4.240e+0, 1.162e-4
4.260e+0, 1.162e-4
4.280e+0, 1.164e-4
4.300e+0, 1.164e-4
4.320e+0, 1.165e-4
4.340e+0, 1.165e-4
4.360e+0, 1.165e-4
4.380e+0, 1.166e-4
4.400e+0, 1.167e-4
4.420e+0, 1.165e-4
4.440e+0, 1.164e-4
4.460e+0, 1.166e-4
4.480e+0, 1.165e-4
4.500e+0, 1.163e-4
4.520e+0, 1.163e-4
4.540e+0, 1.163e-4
4.560e+0, 1.167e-4
4.580e+0, 1.169e-4
4.600e+0, 1.170e-4
4.620e+0, 1.172e-4
4.640e+0, 1.172e-4
4.660e+0, 1.173e-4
4.680e+0, 1.177e-4
4.700e+0, 1.177e-4
4.720e+0, 1.178e-4
4.740e+0, 1.180e-4
4.760e+0, 1.183e-4
4.780e+0, 1.184e-4
4.800e+0, 1.184e-4
4.820e+0, 1.185e-4
4.840e+0, 1.187e-4
4.860e+0, 1.186e-4
4.880e+0, 1.186e-4
4.900e+0, 1.186e-4
4.920e+0, 1.186e-4
4.940e+0, 1.185e-4
4.960e+0, 1.185e-4
4.980e+0, 1.184e-4
5.000e+0, 1.185e-4
5.020e+0, 1.184e-4
5.040e+0, 1.182e-4
5.060e+0, 1.182e-4
5.080e+0, 1.182e-4
5.100e+0, 1.183e-4
5.120e+0, 1.182e-4
5.140e+0, 1.182e-4
5.160e+0, 1.183e-4
5.180e+0, 1.180e-4
5.200e+0, 1.181e-4
5.220e+0, 1.185e-4
5.240e+0, 1.187e-4
5.260e+0, 1.185e-4
5.280e+0, 1.186e-4
5.300e+0, 1.190e-4
5.320e+0, 1.192e-4
5.340e+0, 1.195e-4
5.360e+0, 1.195e-4
5.380e+0, 1.196e-4
5.400e+0, 1.197e-4
5.420e+0, 1.198e-4
5.440e+0, 1.201e-4
5.460e+0, 1.201e-4
5.480e+0, 1.198e-4
5.500e+0, 1.198e-4
5.520e+0, 1.200e-4
5.540e+0, 1.201e-4
5.560e+0, 1.202e-4
5.580e+0, 1.204e-4
5.600e+0, 1.203e-4
5.620e+0, 1.203e-4
5.640e+0, 1.202e-4
5.660e+0, 1.201e-4
5.680e+0, 1.202e-4
5.700e+0, 1.203e-4
5.720e+0, 1.202e-4
5.740e+0, 1.201e-4
5.760e+0, 1.202e-4
5.780e+0, 1.203e-4
5.800e+0, 1.202e-4
5.820e+0, 1.202e-4
5.840e+0, 1.203e-4
5.860e+0, 1.203e-4
5.880e+0, 1.204e-4
5.900e+0, 1.206e-4
5.920e+0, 1.209e-4
5.940e+0, 1.209e-4
5.960e+0, 1.210e-4
5.980e+0, 1.210e-4
6.000e+0, 1.210e-4
6.020e+0, 1.212e-4
6.040e+0, 1.214e-4
6.060e+0, 1.213e-4
6.080e+0, 1.212e-4
6.100e+0, 1.212e-4
6.120e+0, 1.212e-4
6.140e+0, 1.216e-4
6.160e+0, 1.219e-4
6.180e+0, 1.221e-4
6.200e+0, 1.221e-4
6.220e+0, 1.223e-4
6.240e+0, 1.224e-4
6.260e+0, 1.225e-4
6.280e+0, 1.226e-4
6.300e+0, 1.223e-4
6.320e+0, 1.224e-4
6.340e+0, 1.225e-4
6.360e+0, 1.225e-4
6.380e+0, 1.224e-4
6.400e+0, 1.225e-4
6.420e+0, 1.225e-4
6.440e+0, 1.225e-4
6.460e+0, 1.226e-4
6.480e+0, 1.224e-4
6.500e+0, 1.225e-4
6.520e+0, 1.225e-4
6.540e+0, 1.226e-4
6.560e+0, 1.224e-4
6.580e+0, 1.224e-4
6.600e+0, 1.224e-4
6.620e+0, 1.226e-4
6.640e+0, 1.228e-4
6.660e+0, 1.228e-4
6.680e+0, 1.229e-4
6.700e+0, 1.227e-4
6.720e+0, 1.227e-4
6.740e+0, 1.227e-4
6.760e+0, 1.227e-4
6.780e+0, 1.226e-4
6.800e+0, 1.228e-4
6.820e+0, 1.230e-4
6.840e+0, 1.231e-4
6.860e+0, 1.233e-4
6.880e+0, 1.232e-4
6.900e+0, 1.228e-4
6.920e+0, 1.228e-4
6.940e+0, 1.231e-4
6.960e+0, 1.237e-4
6.980e+0, 1.239e-4
7.000e+0, 1.238e-4
7.020e+0, 1.238e-4
7.040e+0, 1.240e-4
7.060e+0, 1.243e-4
7.080e+0, 1.244e-4
7.100e+0, 1.244e-4
7.120e+0, 1.240e-4
7.140e+0, 1.229e-4
7.160e+0, 1.237e-4
7.180e+0, 1.240e-4
7.200e+0, 1.241e-4
7.220e+0, 1.241e-4
7.240e+0, 1.244e-4
7.260e+0, 1.245e-4
7.280e+0, 1.245e-4
7.300e+0, 1.247e-4
7.320e+0, 1.247e-4
7.340e+0, 1.247e-4
7.360e+0, 1.249e-4
7.380e+0, 1.251e-4
7.400e+0, 1.253e-4
7.420e+0, 1.253e-4
7.440e+0, 1.253e-4
7.460e+0, 1.253e-4
7.480e+0, 1.252e-4
7.500e+0, 1.252e-4
7.520e+0, 1.253e-4
7.540e+0, 1.252e-4
7.560e+0, 1.251e-4
7.580e+0, 1.251e-4
7.600e+0, 1.250e-4
7.620e+0, 1.251e-4
7.640e+0, 1.252e-4
7.660e+0, 1.253e-4
7.680e+0, 1.254e-4
7.700e+0, 1.256e-4
7.720e+0, 1.256e-4
7.740e+0, 1.251e-4
7.760e+0, 1.253e-4
7.780e+0, 1.255e-4
7.800e+0, 1.259e-4
7.820e+0, 1.262e-4
7.840e+0, 1.263e-4
7.860e+0, 1.265e-4
7.880e+0, 1.269e-4
7.900e+0, 1.270e-4
7.920e+0, 1.272e-4
7.940e+0, 1.271e-4
7.960e+0, 1.271e-4
7.980e+0, 1.274e-4
8.000e+0, 1.275e-4
8.020e+0, 1.277e-4
8.040e+0, 1.278e-4
8.060e+0, 1.279e-4
8.080e+0, 1.280e-4
8.100e+0, 1.281e-4
8.120e+0, 1.280e-4
8.140e+0, 1.280e-4
8.160e+0, 1.281e-4
8.180e+0, 1.282e-4
8.200e+0, 1.283e-4
8.220e+0, 1.284e-4
8.240e+0, 1.284e-4
8.260e+0, 1.285e-4
8.280e+0, 1.285e-4
8.300e+0, 1.285e-4
8.320e+0, 1.286e-4
8.340e+0, 1.286e-4
8.360e+0, 1.287e-4
8.380e+0, 1.288e-4
8.400e+0, 1.289e-4
8.420e+0, 1.288e-4
8.440e+0, 1.289e-4
8.460e+0, 1.288e-4
8.480e+0, 1.288e-4
8.500e+0, 1.287e-4
8.520e+0, 1.288e-4
8.540e+0, 1.288e-4
8.560e+0, 1.288e-4
8.580e+0, 1.287e-4
8.600e+0, 1.283e-4
8.620e+0, 1.281e-4
8.640e+0, 1.282e-4
8.660e+0, 1.289e-4
8.680e+0, 1.294e-4
8.700e+0, 1.295e-4
8.720e+0, 1.296e-4
8.740e+0, 1.298e-4
8.760e+0, 1.299e-4
8.780e+0, 1.301e-4
8.800e+0, 1.301e-4
8.820e+0, 1.300e-4
8.840e+0, 1.303e-4
8.860e+0, 1.304e-4
8.880e+0, 1.305e-4
8.900e+0, 1.305e-4
8.920e+0, 1.305e-4
8.940e+0, 1.306e-4
8.960e+0, 1.305e-4
8.980e+0, 1.305e-4
9.000e+0, 1.304e-4
9.020e+0, 1.305e-4
9.040e+0, 1.304e-4
9.060e+0, 1.304e-4
9.080e+0, 1.306e-4
9.100e+0, 1.305e-4
9.120e+0, 1.307e-4
9.140e+0, 1.306e-4
9.160e+0, 1.304e-4
9.180e+0, 1.305e-4
9.200e+0, 1.305e-4
9.220e+0, 1.305e-4
9.240e+0, 1.305e-4
9.260e+0, 1.303e-4
9.280e+0, 1.303e-4
9.300e+0, 1.301e-4
9.320e+0, 1.299e-4
9.340e+0, 1.299e-4
9.360e+0, 1.298e-4
9.380e+0, 1.299e-4
9.400e+0, 1.302e-4
9.420e+0, 1.301e-4
9.440e+0, 1.298e-4
9.460e+0, 1.295e-4
9.480e+0, 1.295e-4
9.500e+0, 1.294e-4
9.520e+0, 1.295e-4
9.540e+0, 1.297e-4
9.560e+0, 1.297e-4
9.580e+0, 1.298e-4
9.600e+0, 1.297e-4
9.620e+0, 1.297e-4
9.640e+0, 1.299e-4
9.660e+0, 1.298e-4
9.680e+0, 1.298e-4
9.700e+0, 1.298e-4
9.720e+0, 1.300e-4
9.740e+0, 1.301e-4
9.760e+0, 1.302e-4
9.780e+0, 1.303e-4
9.800e+0, 1.303e-4
9.820e+0, 1.304e-4
9.840e+0, 1.304e-4
9.860e+0, 1.305e-4
9.880e+0, 1.307e-4
9.900e+0, 1.305e-4
9.920e+0, 1.304e-4
9.940e+0, 1.304e-4
9.960e+0, 1.307e-4
9.980e+0, 1.307e-4
1.000e+1, 1.307e-4
1.002e+1, 1.306e-4
1.004e+1, 1.306e-4
1.006e+1, 1.307e-4
1.008e+1, 1.308e-4
1.010e+1, 1.308e-4
1.012e+1, 1.308e-4
1.014e+1, 1.308e-4
1.016e+1, 1.309e-4
1.018e+1, 1.312e-4
1.020e+1, 1.314e-4
1.022e+1, 1.314e-4
1.024e+1, 1.312e-4
1.026e+1, 1.312e-4
1.028e+1, 1.314e-4
1.030e+1, 1.316e-4
1.032e+1, 1.319e-4
1.034e+1, 1.320e-4
1.036e+1, 1.323e-4
1.038e+1, 1.322e-4
1.040e+1, 1.319e-4
1.042e+1, 1.321e-4
1.044e+1, 1.316e-4
1.046e+1, 1.314e-4
1.048e+1, 1.314e-4
1.050e+1, 1.313e-4
1.052e+1, 1.314e-4
1.054e+1, 1.315e-4
1.056e+1, 1.314e-4
1.058e+1, 1.313e-4
1.060e+1, 1.312e-4
1.062e+1, 1.313e-4
1.064e+1, 1.313e-4
1.066e+1, 1.311e-4
1.068e+1, 1.309e-4
1.070e+1, 1.308e-4
1.072e+1, 1.308e-4
1.074e+1, 1.308e-4
1.076e+1, 1.309e-4
1.078e+1, 1.308e-4
1.080e+1, 1.308e-4
1.082e+1, 1.307e-4
1.084e+1, 1.308e-4
1.086e+1, 1.309e-4
1.088e+1, 1.307e-4
1.090e+1, 1.306e-4
1.092e+1, 1.305e-4
1.094e+1, 1.301e-4
1.096e+1, 1.302e-4
1.098e+1, 1.303e-4
1.100e+1, 1.301e-4
1.102e+1, 1.298e-4
1.104e+1, 1.295e-4
1.106e+1, 1.298e-4
1.108e+1, 1.299e-4
1.110e+1, 1.298e-4
1.112e+1, 1.288e-4
1.114e+1, 1.269e-4
1.116e+1, 1.292e-4
1.118e+1, 1.315e-4
1.120e+1, 1.322e-4
1.122e+1, 1.323e-4
1.124e+1, 1.329e-4
1.126e+1, 1.332e-4
1.128e+1, 1.336e-4
1.130e+1, 1.339e-4
1.132e+1, 1.342e-4
1.134e+1, 1.347e-4
1.136e+1, 1.350e-4
1.138e+1, 1.350e-4
1.140e+1, 1.351e-4
1.142e+1, 1.349e-4
1.144e+1, 1.349e-4
1.146e+1, 1.350e-4
1.148e+1, 1.350e-4
1.150e+1, 1.351e-4
1.152e+1, 1.350e-4
1.154e+1, 1.351e-4
1.156e+1, 1.351e-4
1.158e+1, 1.352e-4
1.160e+1, 1.352e-4
1.162e+1, 1.351e-4
1.164e+1, 1.351e-4
1.166e+1, 1.351e-4
1.168e+1, 1.353e-4
1.170e+1, 1.352e-4
1.172e+1, 1.351e-4
1.174e+1, 1.350e-4
1.176e+1, 1.351e-4
1.178e+1, 1.343e-4
1.180e+1, 1.259e-4
1.182e+1, 1.219e-4
1.184e+1, 1.225e-4
1.186e+1, 1.228e-4
1.188e+1, 1.229e-4
1.190e+1, 1.150e-4
1.192e+1, 1.142e-4
1.194e+1, 1.196e-4
1.196e+1, 1.249e-4
1.198e+1, 1.328e-4
1.200e+1, 1.345e-4
1.202e+1, 1.351e-4
1.204e+1, 1.361e-4
1.206e+1, 1.372e-4
1.208e+1, 1.373e-4
1.210e+1, 1.375e-4
1.212e+1, 1.375e-4
1.214e+1, 1.377e-4
1.216e+1, 1.377e-4
1.218e+1, 1.378e-4
1.220e+1, 1.378e-4
1.222e+1, 1.378e-4
1.224e+1, 1.377e-4
1.226e+1, 1.376e-4
1.228e+1, 1.374e-4
1.230e+1, 1.374e-4
1.232e+1, 1.375e-4
1.234e+1, 1.374e-4
1.236e+1, 1.372e-4
1.238e+1, 1.373e-4
1.240e+1, 1.373e-4
1.242e+1, 1.374e-4
1.244e+1, 1.372e-4
1.246e+1, 1.372e-4
1.248e+1, 1.372e-4
1.250e+1, 1.371e-4
1.252e+1, 1.372e-4
1.254e+1, 1.374e-4
1.256e+1, 1.373e-4
1.258e+1, 1.374e-4
1.260e+1, 1.374e-4
1.262e+1, 1.374e-4
1.264e+1, 1.373e-4
1.266e+1, 1.375e-4
1.268e+1, 1.379e-4
1.270e+1, 1.382e-4
1.272e+1, 1.386e-4
1.274e+1, 1.387e-4
1.276e+1, 1.388e-4
1.278e+1, 1.386e-4
1.280e+1, 1.385e-4
1.282e+1, 1.385e-4
1.284e+1, 1.384e-4
1.286e+1, 1.375e-4
1.288e+1, 1.360e-4
1.290e+1, 1.356e-4
1.292e+1, 1.353e-4
1.294e+1, 1.349e-4
1.296e+1, 1.346e-4
1.298e+1, 1.346e-4
1.300e+1, 1.345e-4
1.302e+1, 1.344e-4
1.304e+1, 1.344e-4
1.306e+1, 1.345e-4
1.308e+1, 1.346e-4
1.310e+1, 1.347e-4
1.312e+1, 1.348e-4
1.314e+1, 1.348e-4
1.316e+1, 1.348e-4
1.318e+1, 1.349e-4
1.320e+1, 1.349e-4
1.322e+1, 1.350e-4
1.324e+1, 1.349e-4
1.326e+1, 1.349e-4
1.328e+1, 1.350e-4
1.330e+1, 1.350e-4
1.332e+1, 1.351e-4
1.334e+1, 1.351e-4
1.336e+1, 1.352e-4
1.338e+1, 1.352e-4
1.340e+1, 1.351e-4
1.342e+1, 1.353e-4
1.344e+1, 1.354e-4
1.346e+1, 1.350e-4
1.348e+1, 1.338e-4
1.350e+1, 1.331e-4
1.352e+1, 1.331e-4
1.354e+1, 1.334e-4
1.356e+1, 1.337e-4
1.358e+1, 1.341e-4
1.360e+1, 1.348e-4
1.362e+1, 1.358e-4
1.364e+1, 1.364e-4
1.366e+1, 1.366e-4
1.368e+1, 1.365e-4
1.370e+1, 1.362e-4
1.372e+1, 1.368e-4
1.374e+1, 1.372e-4
1.376e+1, 1.373e-4
1.378e+1, 1.374e-4
1.380e+1, 1.374e-4
1.382e+1, 1.375e-4
1.384e+1, 1.374e-4
1.386e+1, 1.373e-4
1.388e+1, 1.373e-4
1.390e+1, 1.374e-4
1.392e+1, 1.374e-4
1.394e+1, 1.374e-4
1.396e+1, 1.375e-4
1.398e+1, 1.375e-4
1.400e+1, 1.375e-4
1.402e+1, 1.375e-4
1.404e+1, 1.373e-4
1.406e+1, 1.353e-4
1.408e+1, 1.331e-4
1.410e+1, 1.330e-4
1.412e+1, 1.329e-4
1.414e+1, 1.329e-4
1.416e+1, 1.329e-4
1.418e+1, 1.330e-4
1.420e+1, 1.330e-4
1.422e+1, 1.330e-4
1.424e+1, 1.331e-4
1.426e+1, 1.330e-4
1.428e+1, 1.330e-4
1.430e+1, 1.327e-4
1.432e+1, 1.329e-4
1.434e+1, 1.326e-4
1.436e+1, 1.323e-4
1.438e+1, 1.321e-4
1.440e+1, 1.323e-4
1.442e+1, 1.322e-4
1.444e+1, 1.323e-4
1.446e+1, 1.327e-4
1.448e+1, 1.336e-4
1.450e+1, 1.339e-4
1.452e+1, 1.340e-4
1.454e+1, 1.342e-4
1.456e+1, 1.342e-4
1.458e+1, 1.343e-4
1.460e+1, 1.344e-4
1.462e+1, 1.344e-4
1.464e+1, 1.344e-4
1.466e+1, 1.346e-4
1.468e+1, 1.347e-4
1.470e+1, 1.344e-4
1.472e+1, 1.340e-4
1.474e+1, 1.342e-4
1.476e+1, 1.343e-4
1.478e+1, 1.342e-4
1.480e+1, 1.340e-4
1.482e+1, 1.341e-4
1.484e+1, 1.340e-4
1.486e+1, 1.341e-4
1.488e+1, 1.342e-4
1.490e+1, 1.341e-4
1.492e+1, 1.341e-4
1.494e+1, 1.342e-4
1.496e+1, 1.341e-4
1.498e+1, 1.341e-4
1.500e+1, 1.339e-4
1.502e+1, 1.338e-4
1.504e+1, 1.340e-4
1.506e+1, 1.340e-4
1.508e+1, 1.340e-4
1.510e+1, 1.339e-4
1.512e+1, 1.339e-4
1.514e+1, 1.339e-4
1.516e+1, 1.340e-4
1.518e+1, 1.339e-4
1.520e+1, 1.340e-4
1.522e+1, 1.342e-4
1.524e+1, 1.344e-4
1.526e+1, 1.349e-4
1.528e+1, 1.353e-4
1.530e+1, 1.355e-4
1.532e+1, 1.356e-4
1.534e+1, 1.358e-4
1.536e+1, 1.360e-4
1.538e+1, 1.361e-4
1.540e+1, 1.357e-4
1.542e+1, 1.356e-4
1.544e+1, 1.357e-4
1.546e+1, 1.358e-4
1.548e+1, 1.356e-4
1.550e+1, 1.355e-4
1.552e+1, 1.352e-4
1.554e+1, 1.353e-4
1.556e+1, 1.353e-4
1.558e+1, 1.352e-4
1.560e+1, 1.351e-4
1.562e+1, 1.350e-4
1.564e+1, 1.350e-4
1.566e+1, 1.350e-4
1.568e+1, 1.349e-4
1.570e+1, 1.348e-4
1.572e+1, 1.347e-4
1.574e+1, 1.348e-4
1.576e+1, 1.348e-4
1.578e+1, 1.349e-4
1.580e+1, 1.351e-4
1.582e+1, 1.352e-4
1.584e+1, 1.352e-4
1.586e+1, 1.351e-4
1.588e+1, 1.352e-4
1.590e+1, 1.350e-4
1.592e+1, 1.353e-4
1.594e+1, 1.352e-4
1.596e+1, 1.344e-4
1.598e+1, 1.334e-4
1.600e+1, 1.338e-4
1.602e+1, 1.339e-4
1.604e+1, 1.342e-4
1.606e+1, 1.336e-4
1.608e+1, 1.306e-4
1.610e+1, 1.286e-4
1.612e+1, 1.295e-4
1.614e+1, 1.309e-4
1.616e+1, 1.331e-4
1.618e+1, 1.337e-4
1.620e+1, 1.345e-4
1.622e+1, 1.362e-4
1.624e+1, 1.366e-4
1.626e+1, 1.372e-4
1.628e+1, 1.384e-4
1.630e+1, 1.400e-4
1.632e+1, 1.407e-4
1.634e+1, 1.410e-4
1.636e+1, 1.413e-4
1.638e+1, 1.415e-4
1.640e+1, 1.416e-4
1.642e+1, 1.417e-4
1.644e+1, 1.418e-4
1.646e+1, 1.420e-4
1.648e+1, 1.423e-4
1.650e+1, 1.423e-4
1.652e+1, 1.424e-4
1.654e+1, 1.425e-4
1.656e+1, 1.425e-4
1.658e+1, 1.425e-4
1.660e+1, 1.425e-4
1.662e+1, 1.426e-4
1.664e+1, 1.427e-4
1.666e+1, 1.427e-4
1.668e+1, 1.428e-4
1.670e+1, 1.425e-4
1.672e+1, 1.422e-4
1.674e+1, 1.422e-4
1.676e+1, 1.426e-4
1.678e+1, 1.430e-4
1.680e+1, 1.429e-4
1.682e+1, 1.426e-4
1.684e+1, 1.428e-4
1.686e+1, 1.431e-4
1.688e+1, 1.434e-4
1.690e+1, 1.439e-4
1.692e+1, 1.443e-4
1.694e+1, 1.448e-4
1.696e+1, 1.450e-4
1.698e+1, 1.450e-4
1.700e+1, 1.451e-4
1.702e+1, 1.451e-4
1.704e+1, 1.452e-4
1.706e+1, 1.453e-4
1.708e+1, 1.455e-4
1.710e+1, 1.455e-4
1.712e+1, 1.456e-4
1.714e+1, 1.458e-4
1.716e+1, 1.458e-4
1.718e+1, 1.458e-4
1.720e+1, 1.458e-4
1.722e+1, 1.457e-4
1.724e+1, 1.454e-4
1.726e+1, 1.454e-4
1.728e+1, 1.454e-4
1.730e+1, 1.453e-4
1.732e+1, 1.453e-4
1.734e+1, 1.454e-4
1.736e+1, 1.453e-4
1.738e+1, 1.454e-4
1.740e+1, 1.454e-4
1.742e+1, 1.453e-4
1.744e+1, 1.452e-4
1.746e+1, 1.452e-4
1.748e+1, 1.453e-4
1.750e+1, 1.453e-4
1.752e+1, 1.452e-4
1.754e+1, 1.448e-4
1.756e+1, 1.446e-4
1.758e+1, 1.445e-4
1.760e+1, 1.446e-4
1.762e+1, 1.444e-4
1.764e+1, 1.443e-4
1.766e+1, 1.444e-4
1.768e+1, 1.446e-4
1.770e+1, 1.450e-4
1.772e+1, 1.451e-4
1.774e+1, 1.453e-4
1.776e+1, 1.456e-4
1.778e+1, 1.459e-4
1.780e+1, 1.461e-4
1.782e+1, 1.463e-4
1.784e+1, 1.461e-4
1.786e+1, 1.459e-4
1.788e+1, 1.461e-4
1.790e+1, 1.464e-4
1.792e+1, 1.463e-4
1.794e+1, 1.465e-4
1.796e+1, 1.466e-4
1.798e+1, 1.464e-4
1.800e+1, 1.465e-4
1.802e+1, 1.466e-4
1.804e+1, 1.465e-4
1.806e+1, 1.465e-4
1.808e+1, 1.465e-4
1.810e+1, 1.465e-4
1.812e+1, 1.466e-4
1.814e+1, 1.466e-4
1.816e+1, 1.465e-4
1.818e+1, 1.464e-4
1.820e+1, 1.465e-4
1.822e+1, 1.464e-4
1.824e+1, 1.464e-4
1.826e+1, 1.465e-4
1.828e+1, 1.464e-4
1.830e+1, 1.465e-4
1.832e+1, 1.464e-4
1.834e+1, 1.463e-4
1.836e+1, 1.462e-4
1.838e+1, 1.462e-4
1.840e+1, 1.458e-4
1.842e+1, 1.460e-4
1.844e+1, 1.459e-4
1.846e+1, 1.457e-4
1.848e+1, 1.457e-4
1.850e+1, 1.460e-4
1.852e+1, 1.463e-4
1.854e+1, 1.465e-4
1.856e+1, 1.465e-4
1.858e+1, 1.459e-4
1.860e+1, 1.455e-4
1.862e+1, 1.454e-4
1.864e+1, 1.456e-4
1.866e+1, 1.456e-4
1.868e+1, 1.454e-4
1.870e+1, 1.454e-4
1.872e+1, 1.456e-4
1.874e+1, 1.457e-4
1.876e+1, 1.457e-4
1.878e+1, 1.458e-4
1.880e+1, 1.455e-4
1.882e+1, 1.453e-4
1.884e+1, 1.450e-4
1.886e+1, 1.445e-4
1.888e+1, 1.439e-4
1.890e+1, 1.440e-4
1.892e+1, 1.441e-4
1.894e+1, 1.444e-4
1.896e+1, 1.444e-4
1.898e+1, 1.444e-4
1.900e+1, 1.445e-4
1.902e+1, 1.444e-4
1.904e+1, 1.442e-4
1.906e+1, 1.442e-4
1.908e+1, 1.442e-4
1.910e+1, 1.442e-4
1.912e+1, 1.444e-4
1.914e+1, 1.444e-4
1.916e+1, 1.445e-4
1.918e+1, 1.445e-4
1.920e+1, 1.444e-4
1.922e+1, 1.445e-4
1.924e+1, 1.446e-4
1.926e+1, 1.446e-4
1.928e+1, 1.440e-4
1.930e+1, 1.437e-4
1.932e+1, 1.437e-4
1.934e+1, 1.439e-4
1.936e+1, 1.440e-4
1.938e+1, 1.442e-4
1.940e+1, 1.446e-4
1.942e+1, 1.449e-4
1.944e+1, 1.453e-4
1.946e+1, 1.456e-4
1.948e+1, 1.457e-4
1.950e+1, 1.456e-4
1.952e+1, 1.457e-4
1.954e+1, 1.459e-4
1.956e+1, 1.460e-4
1.958e+1, 1.460e-4
1.960e+1, 1.462e-4
1.962e+1, 1.463e-4
1.964e+1, 1.462e-4
1.966e+1, 1.463e-4
1.968e+1, 1.463e-4
1.970e+1, 1.463e-4
1.972e+1, 1.464e-4
1.974e+1, 1.464e-4
1.976e+1, 1.464e-4
1.978e+1, 1.463e-4
1.980e+1, 1.463e-4
1.982e+1, 1.462e-4
1.984e+1, 1.463e-4
1.986e+1, 1.463e-4
1.988e+1, 1.463e-4
1.990e+1, 1.462e-4
1.992e+1, 1.462e-4
1.994e+1, 1.463e-4
1.996e+1, 1.461e-4
1.998e+1, 1.460e-4
2.000e+1, 1.460e-4
2.002e+1, 1.458e-4
2.004e+1, 1.404e-4
2.006e+1, 1.371e-4
2.008e+1, 1.371e-4
2.010e+1, 1.371e-4
2.012e+1, 1.367e-4
2.014e+1, 1.360e-4
2.016e+1, 1.359e-4
2.018e+1, 1.355e-4
2.020e+1, 1.391e-4
2.022e+1, 1.423e-4
2.024e+1, 1.431e-4
2.026e+1, 1.433e-4
2.028e+1, 1.441e-4
2.030e+1, 1.447e-4
2.032e+1, 1.449e-4
2.034e+1, 1.449e-4
2.036e+1, 1.451e-4
2.038e+1, 1.452e-4
2.040e+1, 1.452e-4
2.042e+1, 1.454e-4
2.044e+1, 1.456e-4
2.046e+1, 1.459e-4
2.048e+1, 1.460e-4
2.050e+1, 1.460e-4
2.052e+1, 1.460e-4
2.054e+1, 1.460e-4
2.056e+1, 1.461e-4
2.058e+1, 1.461e-4
2.060e+1, 1.463e-4
2.062e+1, 1.463e-4
2.064e+1, 1.465e-4
2.066e+1, 1.465e-4
2.068e+1, 1.465e-4
2.070e+1, 1.464e-4
2.072e+1, 1.462e-4
2.074e+1, 1.461e-4
2.076e+1, 1.460e-4
2.078e+1, 1.457e-4
2.080e+1, 1.451e-4
2.082e+1, 1.452e-4
2.084e+1, 1.457e-4
2.086e+1, 1.463e-4
2.088e+1, 1.465e-4
2.090e+1, 1.466e-4
2.092e+1, 1.464e-4
2.094e+1, 1.468e-4
2.096e+1, 1.470e-4
2.098e+1, 1.477e-4
2.100e+1, 1.480e-4
2.102e+1, 1.482e-4
2.104e+1, 1.481e-4
2.106e+1, 1.482e-4
2.108e+1, 1.484e-4
2.110e+1, 1.488e-4
2.112e+1, 1.489e-4
2.114e+1, 1.491e-4
2.116e+1, 1.493e-4
2.118e+1, 1.493e-4
2.120e+1, 1.493e-4
2.122e+1, 1.492e-4
2.124e+1, 1.492e-4
2.126e+1, 1.492e-4
2.128e+1, 1.491e-4
2.130e+1, 1.492e-4
2.132e+1, 1.491e-4
2.134e+1, 1.490e-4
2.136e+1, 1.492e-4
2.138e+1, 1.495e-4
2.140e+1, 1.495e-4
2.142e+1, 1.495e-4
2.144e+1, 1.495e-4
2.146e+1, 1.496e-4
2.148e+1, 1.498e-4
2.150e+1, 1.495e-4
2.152e+1, 1.494e-4
2.154e+1, 1.494e-4
2.156e+1, 1.494e-4
2.158e+1, 1.493e-4
2.160e+1, 1.486e-4
2.162e+1, 1.485e-4
2.164e+1, 1.494e-4
2.166e+1, 1.496e-4
2.168e+1, 1.499e-4
2.170e+1, 1.499e-4
2.172e+1, 1.498e-4
2.174e+1, 1.496e-4
2.176e+1, 1.496e-4
2.178e+1, 1.498e-4
2.180e+1, 1.499e-4
2.182e+1, 1.498e-4
2.184e+1, 1.497e-4
2.186e+1, 1.500e-4
2.188e+1, 1.500e-4
2.190e+1, 1.502e-4
2.192e+1, 1.502e-4
2.194e+1, 1.502e-4
2.196e+1, 1.500e-4
2.198e+1, 1.499e-4
2.200e+1, 1.499e-4
2.202e+1, 1.500e-4
2.204e+1, 1.502e-4
2.206e+1, 1.504e-4
2.208e+1, 1.504e-4
2.210e+1, 1.506e-4
2.212e+1, 1.506e-4
2.214e+1, 1.505e-4
2.216e+1, 1.504e-4
2.218e+1, 1.507e-4
2.220e+1, 1.507e-4
2.222e+1, 1.507e-4
2.224e+1, 1.507e-4
2.226e+1, 1.507e-4
2.228e+1, 1.509e-4
2.230e+1, 1.508e-4
2.232e+1, 1.506e-4
2.234e+1, 1.506e-4
2.236e+1, 1.506e-4
2.238e+1, 1.504e-4
2.240e+1, 1.497e-4
2.242e+1, 1.495e-4
2.244e+1, 1.496e-4
2.246e+1, 1.499e-4
2.248e+1, 1.501e-4
2.250e+1, 1.503e-4
2.252e+1, 1.504e-4
2.254e+1, 1.506e-4
2.256e+1, 1.506e-4
2.258e+1, 1.507e-4
2.260e+1, 1.505e-4
2.262e+1, 1.503e-4
2.264e+1, 1.506e-4
2.266e+1, 1.507e-4
2.268e+1, 1.508e-4
2.270e+1, 1.508e-4
2.272e+1, 1.510e-4
2.274e+1, 1.509e-4
2.276e+1, 1.509e-4
2.278e+1, 1.508e-4
2.280e+1, 1.506e-4
2.282e+1, 1.503e-4
2.284e+1, 1.501e-4
2.286e+1, 1.498e-4
2.288e+1, 1.497e-4
2.290e+1, 1.498e-4
2.292e+1, 1.498e-4
2.294e+1, 1.498e-4
2.296e+1, 1.499e-4
2.298e+1, 1.499e-4
2.300e+1, 1.499e-4
2.302e+1, 1.500e-4
2.304e+1, 1.498e-4
2.306e+1, 1.497e-4
2.308e+1, 1.497e-4
2.310e+1, 1.497e-4
2.312e+1, 1.492e-4
2.314e+1, 1.490e-4
2.316e+1, 1.490e-4
2.318e+1, 1.486e-4
2.320e+1, 1.485e-4
2.322e+1, 1.485e-4
2.324e+1, 1.487e-4
2.326e+1, 1.489e-4
2.328e+1, 1.493e-4
2.330e+1, 1.495e-4
2.332e+1, 1.495e-4
2.334e+1, 1.495e-4
2.336e+1, 1.496e-4
2.338e+1, 1.498e-4
2.340e+1, 1.499e-4
2.342e+1, 1.497e-4
2.344e+1, 1.496e-4
2.346e+1, 1.498e-4
2.348e+1, 1.501e-4
2.350e+1, 1.502e-4
2.352e+1, 1.503e-4
2.354e+1, 1.503e-4
2.356e+1, 1.503e-4
2.358e+1, 1.503e-4
2.360e+1, 1.502e-4
2.362e+1, 1.503e-4
2.364e+1, 1.503e-4
2.366e+1, 1.505e-4
2.368e+1, 1.504e-4
2.370e+1, 1.504e-4
2.372e+1, 1.507e-4
2.374e+1, 1.509e-4
2.376e+1, 1.508e-4
2.378e+1, 1.508e-4
2.380e+1, 1.507e-4
2.382e+1, 1.506e-4
2.384e+1, 1.505e-4
2.386e+1, 1.506e-4
2.388e+1, 1.506e-4
2.390e+1, 1.504e-4
2.392e+1, 1.506e-4
2.394e+1, 1.506e-4
2.396e+1, 1.504e-4
2.398e+1, 1.498e-4
2.400e+1, 1.499e-4
2.402e+1, 1.502e-4
2.404e+1, 1.502e-4
2.406e+1, 1.505e-4
2.408e+1, 1.507e-4
2.410e+1, 1.506e-4
2.412e+1, 1.509e-4
2.414e+1, 1.512e-4
2.416e+1, 1.514e-4
2.418e+1, 1.513e-4
2.420e+1, 1.512e-4
2.422e+1, 1.514e-4
2.424e+1, 1.516e-4
2.426e+1, 1.516e-4
2.428e+1, 1.517e-4
2.430e+1, 1.517e-4
2.432e+1, 1.516e-4
2.434e+1, 1.515e-4
2.436e+1, 1.514e-4
2.438e+1, 1.514e-4
2.440e+1, 1.514e-4
2.442e+1, 1.515e-4
2.444e+1, 1.514e-4
2.446e+1, 1.515e-4
2.448e+1, 1.517e-4
2.450e+1, 1.519e-4
2.452e+1, 1.517e-4
2.454e+1, 1.516e-4
2.456e+1, 1.517e-4
2.458e+1, 1.517e-4
2.460e+1, 1.516e-4
2.462e+1, 1.515e-4
2.464e+1, 1.516e-4
2.466e+1, 1.518e-4
2.468e+1, 1.519e-4
2.470e+1, 1.521e-4
2.472e+1, 1.521e-4
2.474e+1, 1.515e-4
2.476e+1, 1.505e-4
2.478e+1, 1.498e-4
2.480e+1, 1.498e-4
2.482e+1, 1.502e-4
2.484e+1, 1.508e-4
2.486e+1, 1.511e-4
2.488e+1, 1.510e-4
2.490e+1, 1.510e-4
2.492e+1, 1.512e-4
2.494e+1, 1.513e-4
2.496e+1, 1.512e-4
2.498e+1, 1.512e-4
2.500e+1, 1.513e-4
2.502e+1, 1.514e-4
2.504e+1, 1.514e-4
2.506e+1, 1.516e-4
2.508e+1, 1.517e-4
2.510e+1, 1.517e-4
2.512e+1, 1.517e-4
2.514e+1, 1.518e-4
2.516e+1, 1.517e-4
2.518e+1, 1.519e-4
2.520e+1, 1.518e-4
2.522e+1, 1.519e-4
2.524e+1, 1.518e-4
2.526e+1, 1.519e-4
2.528e+1, 1.519e-4
2.530e+1, 1.518e-4
2.532e+1, 1.517e-4
2.534e+1, 1.519e-4
2.536e+1, 1.520e-4
2.538e+1, 1.522e-4
2.540e+1, 1.521e-4
2.542e+1, 1.520e-4
2.544e+1, 1.519e-4
2.546e+1, 1.521e-4
2.548e+1, 1.521e-4
2.550e+1, 1.523e-4
2.552e+1, 1.522e-4
2.554e+1, 1.519e-4
2.556e+1, 1.512e-4
2.558e+1, 1.508e-4
2.560e+1, 1.509e-4
2.562e+1, 1.511e-4
2.564e+1, 1.507e-4
2.566e+1, 1.507e-4
2.568e+1, 1.515e-4
2.570e+1, 1.522e-4
2.572e+1, 1.525e-4
2.574e+1, 1.528e-4
2.576e+1, 1.527e-4
2.578e+1, 1.526e-4
2.580e+1, 1.528e-4
2.582e+1, 1.530e-4
2.584e+1, 1.531e-4
2.586e+1, 1.531e-4
2.588e+1, 1.531e-4
2.590e+1, 1.531e-4
2.592e+1, 1.531e-4
2.594e+1, 1.530e-4
2.596e+1, 1.530e-4
2.598e+1, 1.530e-4
2.600e+1, 1.529e-4
2.602e+1, 1.528e-4
2.604e+1, 1.528e-4
2.606e+1, 1.528e-4
2.608e+1, 1.527e-4
2.610e+1, 1.527e-4
2.612e+1, 1.526e-4
2.614e+1, 1.526e-4
2.616e+1, 1.527e-4
2.618e+1, 1.527e-4
2.620e+1, 1.529e-4
2.622e+1, 1.527e-4
2.624e+1, 1.526e-4
2.626e+1, 1.524e-4
2.628e+1, 1.522e-4
2.630e+1, 1.520e-4
2.632e+1, 1.519e-4
2.634e+1, 1.520e-4
2.636e+1, 1.516e-4
2.638e+1, 1.510e-4
2.640e+1, 1.509e-4
2.642e+1, 1.510e-4
2.644e+1, 1.513e-4
2.646e+1, 1.515e-4
2.648e+1, 1.516e-4
2.650e+1, 1.519e-4
2.652e+1, 1.520e-4
2.654e+1, 1.522e-4
2.656e+1, 1.523e-4
2.658e+1, 1.523e-4
2.660e+1, 1.522e-4
2.662e+1, 1.525e-4
2.664e+1, 1.525e-4
2.666e+1, 1.527e-4
2.668e+1, 1.527e-4
2.670e+1, 1.527e-4
2.672e+1, 1.527e-4
2.674e+1, 1.527e-4
2.676e+1, 1.527e-4
2.678e+1, 1.526e-4
2.680e+1, 1.525e-4
2.682e+1, 1.525e-4
2.684e+1, 1.522e-4
2.686e+1, 1.521e-4
2.688e+1, 1.520e-4
2.690e+1, 1.521e-4
2.692e+1, 1.521e-4
2.694e+1, 1.521e-4
2.696e+1, 1.522e-4
2.698e+1, 1.521e-4
2.700e+1, 1.520e-4
2.702e+1, 1.521e-4
2.704e+1, 1.521e-4
2.706e+1, 1.520e-4
2.708e+1, 1.520e-4
2.710e+1, 1.520e-4
2.712e+1, 1.522e-4
2.714e+1, 1.524e-4
2.716e+1, 1.523e-4
2.718e+1, 1.521e-4
2.720e+1, 1.519e-4
2.722e+1, 1.521e-4
2.724e+1, 1.523e-4
2.726e+1, 1.527e-4
2.728e+1, 1.529e-4
2.730e+1, 1.532e-4
2.732e+1, 1.534e-4
2.734e+1, 1.534e-4
2.736e+1, 1.534e-4
2.738e+1, 1.535e-4
2.740e+1, 1.534e-4
2.742e+1, 1.534e-4
2.744e+1, 1.534e-4
2.746e+1, 1.532e-4
2.748e+1, 1.529e-4
2.750e+1, 1.529e-4
2.752e+1, 1.530e-4
2.754e+1, 1.529e-4
2.756e+1, 1.529e-4
2.758e+1, 1.530e-4
2.760e+1, 1.529e-4
2.762e+1, 1.530e-4
2.764e+1, 1.531e-4
2.766e+1, 1.531e-4
2.768e+1, 1.529e-4
2.770e+1, 1.528e-4
2.772e+1, 1.528e-4
2.774e+1, 1.526e-4
2.776e+1, 1.528e-4
2.778e+1, 1.529e-4
2.780e+1, 1.528e-4
2.782e+1, 1.528e-4
2.784e+1, 1.527e-4
2.786e+1, 1.525e-4
2.788e+1, 1.526e-4
2.790e+1, 1.527e-4
2.792e+1, 1.529e-4
2.794e+1, 1.523e-4
2.796e+1, 1.519e-4
2.798e+1, 1.515e-4
2.800e+1, 1.509e-4
2.802e+1, 1.498e-4
2.804e+1, 1.445e-4
2.806e+1, 1.219e-4
2.808e+1, 9.253e-5
2.810e+1, 5.290e-5
2.812e+1, 5.087e-5
2.814e+1, 5.746e-5
2.816e+1, 7.399e-5
2.818e+1, 1.115e-4
2.820e+1, 1.210e-4
2.822e+1, 1.245e-4
2.824e+1, 1.244e-4
2.826e+1, 1.297e-4
2.828e+1, 1.316e-4
2.830e+1, 1.318e-4
2.832e+1, 1.325e-4
2.834e+1, 1.326e-4
2.836e+1, 1.327e-4
2.838e+1, 1.334e-4
2.840e+1, 1.331e-4
2.842e+1, 1.328e-4
2.844e+1, 1.330e-4
2.846e+1, 1.330e-4
2.848e+1, 1.327e-4
2.850e+1, 1.324e-4
2.852e+1, 1.323e-4
2.854e+1, 1.316e-4
2.856e+1, 1.300e-4
2.858e+1, 1.299e-4
2.860e+1, 1.298e-4
2.862e+1, 1.298e-4
2.864e+1, 1.296e-4
2.866e+1, 1.303e-4
2.868e+1, 1.311e-4
2.870e+1, 1.319e-4
2.872e+1, 1.337e-4
2.874e+1, 1.347e-4
2.876e+1, 1.365e-4
2.878e+1, 1.374e-4
2.880e+1, 1.383e-4
2.882e+1, 1.394e-4
2.884e+1, 1.375e-4
2.886e+1, 1.291e-4
2.888e+1, 1.259e-4
2.890e+1, 1.262e-4
2.892e+1, 1.260e-4
2.894e+1, 1.248e-4
2.896e+1, 1.246e-4
2.898e+1, 1.252e-4
2.900e+1, 1.256e-4
2.902e+1, 1.257e-4
2.904e+1, 1.258e-4
2.906e+1, 1.248e-4
2.908e+1, 1.243e-4
2.910e+1, 1.239e-4
2.912e+1, 1.233e-4
2.914e+1, 1.236e-4
2.916e+1, 1.234e-4
2.918e+1, 1.231e-4
2.920e+1, 1.228e-4
2.922e+1, 1.230e-4
2.924e+1, 1.237e-4
2.926e+1, 1.236e-4
2.928e+1, 1.236e-4
2.930e+1, 1.234e-4
2.932e+1, 1.237e-4
2.934e+1, 1.235e-4
2.936e+1, 1.236e-4
2.938e+1, 1.244e-4
2.940e+1, 1.240e-4
2.942e+1, 1.250e-4
2.944e+1, 1.255e-4
2.946e+1, 1.254e-4
2.948e+1, 1.241e-4
2.950e+1, 1.260e-4
2.952e+1, 1.310e-4
2.954e+1, 1.371e-4
2.956e+1, 1.397e-4
2.958e+1, 1.411e-4
2.960e+1, 1.423e-4
2.962e+1, 1.432e-4
2.964e+1, 1.441e-4
2.966e+1, 1.446e-4
2.968e+1, 1.449e-4
2.970e+1, 1.451e-4
2.972e+1, 1.451e-4
2.974e+1, 1.452e-4
2.976e+1, 1.451e-4
2.978e+1, 1.453e-4
2.980e+1, 1.455e-4
2.982e+1, 1.455e-4
2.984e+1, 1.455e-4
2.986e+1, 1.455e-4
2.988e+1, 1.453e-4
2.990e+1, 1.453e-4
2.992e+1, 1.454e-4
2.994e+1, 1.454e-4
2.996e+1, 1.454e-4
2.998e+1, 1.452e-4
3.000e+1, 1.452e-4
3.002e+1, 1.452e-4
3.004e+1, 1.454e-4
3.006e+1, 1.452e-4
3.008e+1, 1.451e-4
3.010e+1, 1.453e-4
3.012e+1, 1.455e-4
3.014e+1, 1.457e-4
3.016e+1, 1.458e-4
3.018e+1, 1.459e-4
3.020e+1, 1.460e-4
3.022e+1, 1.459e-4
3.024e+1, 1.459e-4
3.026e+1, 1.456e-4
3.028e+1, 1.454e-4
3.030e+1, 1.450e-4
3.032e+1, 1.451e-4
3.034e+1, 1.453e-4
3.036e+1, 1.460e-4
3.038e+1, 1.468e-4
3.040e+1, 1.475e-4
3.042e+1, 1.480e-4
3.044e+1, 1.486e-4
3.046e+1, 1.489e-4
3.048e+1, 1.490e-4
3.050e+1, 1.490e-4
3.052e+1, 1.491e-4
3.054e+1, 1.495e-4
3.056e+1, 1.497e-4
3.058e+1, 1.498e-4
3.060e+1, 1.497e-4
3.062e+1, 1.497e-4
3.064e+1, 1.497e-4
3.066e+1, 1.496e-4
3.068e+1, 1.496e-4
3.070e+1, 1.497e-4
3.072e+1, 1.496e-4
3.074e+1, 1.497e-4
3.076e+1, 1.496e-4
3.078e+1, 1.497e-4
3.080e+1, 1.497e-4
3.082e+1, 1.496e-4
3.084e+1, 1.496e-4
3.086e+1, 1.496e-4
3.088e+1, 1.495e-4
3.090e+1, 1.496e-4
3.092e+1, 1.496e-4
3.094e+1, 1.496e-4
3.096e+1, 1.497e-4
3.098e+1, 1.498e-4
3.100e+1, 1.499e-4
3.102e+1, 1.498e-4
3.104e+1, 1.500e-4
3.106e+1, 1.506e-4
3.108e+1, 1.508e-4
3.110e+1, 1.512e-4
3.112e+1, 1.518e-4
3.114e+1, 1.524e-4
3.116e+1, 1.529e-4
3.118e+1, 1.535e-4
3.120e+1, 1.538e-4
3.122e+1, 1.539e-4
3.124e+1, 1.542e-4
3.126e+1, 1.541e-4
3.128e+1, 1.542e-4
3.130e+1, 1.543e-4
3.132e+1, 1.545e-4
3.134e+1, 1.546e-4
3.136e+1, 1.548e-4
3.138e+1, 1.548e-4
3.140e+1, 1.546e-4
3.142e+1, 1.545e-4
3.144e+1, 1.542e-4
3.146e+1, 1.542e-4
3.148e+1, 1.542e-4
3.150e+1, 1.542e-4
3.152e+1, 1.542e-4
3.154e+1, 1.541e-4
3.156e+1, 1.539e-4
3.158e+1, 1.538e-4
3.160e+1, 1.539e-4
3.162e+1, 1.538e-4
3.164e+1, 1.540e-4
3.166e+1, 1.539e-4
3.168e+1, 1.538e-4
3.170e+1, 1.538e-4
3.172e+1, 1.540e-4
3.174e+1, 1.541e-4
3.176e+1, 1.542e-4
3.178e+1, 1.543e-4
3.180e+1, 1.541e-4
3.182e+1, 1.540e-4
3.184e+1, 1.542e-4
3.186e+1, 1.546e-4
3.188e+1, 1.549e-4
3.190e+1, 1.550e-4
3.192e+1, 1.552e-4
3.194e+1, 1.555e-4
3.196e+1, 1.558e-4
3.198e+1, 1.559e-4
3.200e+1, 1.558e-4
3.202e+1, 1.555e-4
3.204e+1, 1.557e-4
3.206e+1, 1.559e-4
3.208e+1, 1.560e-4
3.210e+1, 1.560e-4
3.212e+1, 1.561e-4
3.214e+1, 1.563e-4
3.216e+1, 1.562e-4
3.218e+1, 1.560e-4
3.220e+1, 1.560e-4
3.222e+1, 1.563e-4
3.224e+1, 1.564e-4
3.226e+1, 1.561e-4
3.228e+1, 1.559e-4
3.230e+1, 1.559e-4
3.232e+1, 1.563e-4
3.234e+1, 1.562e-4
3.236e+1, 1.560e-4
3.238e+1, 1.558e-4
3.240e+1, 1.556e-4
3.242e+1, 1.556e-4
3.244e+1, 1.556e-4
3.246e+1, 1.557e-4
3.248e+1, 1.553e-4
3.250e+1, 1.554e-4
3.252e+1, 1.555e-4
3.254e+1, 1.554e-4
3.256e+1, 1.552e-4
3.258e+1, 1.548e-4
3.260e+1, 1.547e-4
3.262e+1, 1.549e-4
3.264e+1, 1.552e-4
3.266e+1, 1.554e-4
3.268e+1, 1.557e-4
3.270e+1, 1.559e-4
3.272e+1, 1.561e-4
3.274e+1, 1.563e-4
3.276e+1, 1.565e-4
3.278e+1, 1.565e-4
3.280e+1, 1.568e-4
3.282e+1, 1.572e-4
3.284e+1, 1.576e-4
3.286e+1, 1.576e-4
3.288e+1, 1.575e-4
3.290e+1, 1.573e-4
3.292e+1, 1.571e-4
3.294e+1, 1.571e-4
3.296e+1, 1.569e-4
3.298e+1, 1.568e-4
3.300e+1, 1.570e-4
3.302e+1, 1.572e-4
3.304e+1, 1.568e-4
3.306e+1, 1.566e-4
3.308e+1, 1.567e-4
3.310e+1, 1.567e-4
3.312e+1, 1.568e-4
3.314e+1, 1.568e-4
3.316e+1, 1.567e-4
3.318e+1, 1.566e-4
3.320e+1, 1.566e-4
3.322e+1, 1.562e-4
3.324e+1, 1.558e-4
3.326e+1, 1.555e-4
3.328e+1, 1.552e-4
3.330e+1, 1.555e-4
3.332e+1, 1.554e-4
3.334e+1, 1.550e-4
3.336e+1, 1.547e-4
3.338e+1, 1.548e-4
3.340e+1, 1.551e-4
3.342e+1, 1.555e-4
3.344e+1, 1.559e-4
3.346e+1, 1.560e-4
3.348e+1, 1.562e-4
3.350e+1, 1.563e-4
3.352e+1, 1.565e-4
3.354e+1, 1.567e-4
3.356e+1, 1.566e-4
3.358e+1, 1.564e-4
3.360e+1, 1.564e-4
3.362e+1, 1.564e-4
3.364e+1, 1.566e-4
3.366e+1, 1.568e-4
3.368e+1, 1.568e-4
3.370e+1, 1.567e-4
3.372e+1, 1.568e-4
3.374e+1, 1.568e-4
3.376e+1, 1.569e-4
3.378e+1, 1.568e-4
3.380e+1, 1.567e-4
3.382e+1, 1.566e-4
3.384e+1, 1.565e-4
3.386e+1, 1.563e-4
3.388e+1, 1.562e-4
3.390e+1, 1.562e-4
3.392e+1, 1.562e-4
3.394e+1, 1.563e-4
3.396e+1, 1.566e-4
3.398e+1, 1.568e-4
3.400e+1, 1.568e-4
3.402e+1, 1.566e-4
3.404e+1, 1.565e-4
3.406e+1, 1.563e-4
3.408e+1, 1.564e-4
3.410e+1, 1.563e-4
3.412e+1, 1.559e-4
3.414e+1, 1.553e-4
3.416e+1, 1.549e-4
3.418e+1, 1.548e-4
3.420e+1, 1.550e-4
3.422e+1, 1.551e-4
3.424e+1, 1.550e-4
3.426e+1, 1.552e-4
3.428e+1, 1.553e-4
3.430e+1, 1.554e-4
3.432e+1, 1.555e-4
3.434e+1, 1.554e-4
3.436e+1, 1.554e-4
3.438e+1, 1.556e-4
3.440e+1, 1.557e-4
3.442e+1, 1.559e-4
3.444e+1, 1.559e-4
3.446e+1, 1.559e-4
3.448e+1, 1.560e-4
3.450e+1, 1.558e-4
3.452e+1, 1.557e-4
3.454e+1, 1.557e-4
3.456e+1, 1.557e-4
3.458e+1, 1.558e-4
3.460e+1, 1.558e-4
3.462e+1, 1.558e-4
3.464e+1, 1.558e-4
3.466e+1, 1.557e-4
3.468e+1, 1.557e-4
3.470e+1, 1.558e-4
3.472e+1, 1.559e-4
3.474e+1, 1.558e-4
3.476e+1, 1.555e-4
3.478e+1, 1.552e-4
3.480e+1, 1.550e-4
3.482e+1, 1.552e-4
3.484e+1, 1.553e-4
3.486e+1, 1.550e-4
3.488e+1, 1.545e-4
3.490e+1, 1.544e-4
3.492e+1, 1.547e-4
3.494e+1, 1.552e-4
3.496e+1, 1.555e-4
3.498e+1, 1.557e-4
3.500e+1, 1.560e-4
3.502e+1, 1.563e-4
3.504e+1, 1.566e-4
3.506e+1, 1.567e-4
3.508e+1, 1.567e-4
3.510e+1, 1.567e-4
3.512e+1, 1.568e-4
3.514e+1, 1.568e-4
3.516e+1, 1.568e-4
3.518e+1, 1.567e-4
3.520e+1, 1.568e-4
3.522e+1, 1.569e-4
3.524e+1, 1.569e-4
3.526e+1, 1.566e-4
3.528e+1, 1.565e-4
3.530e+1, 1.565e-4
3.532e+1, 1.566e-4
3.534e+1, 1.568e-4
3.536e+1, 1.569e-4
3.538e+1, 1.569e-4
3.540e+1, 1.569e-4
3.542e+1, 1.569e-4
3.544e+1, 1.567e-4
3.546e+1, 1.565e-4
3.548e+1, 1.564e-4
3.550e+1, 1.565e-4
3.552e+1, 1.566e-4
3.554e+1, 1.565e-4
3.556e+1, 1.565e-4
3.558e+1, 1.567e-4
3.560e+1, 1.564e-4
3.562e+1, 1.562e-4
3.564e+1, 1.563e-4
3.566e+1, 1.566e-4
3.568e+1, 1.569e-4
3.570e+1, 1.571e-4
3.572e+1, 1.571e-4
3.574e+1, 1.572e-4
3.576e+1, 1.571e-4
3.578e+1, 1.572e-4
3.580e+1, 1.573e-4
3.582e+1, 1.574e-4
3.584e+1, 1.576e-4
3.586e+1, 1.579e-4
3.588e+1, 1.580e-4
3.590e+1, 1.581e-4
3.592e+1, 1.582e-4
3.594e+1, 1.581e-4
3.596e+1, 1.580e-4
3.598e+1, 1.580e-4
3.600e+1, 1.581e-4
3.602e+1, 1.583e-4
3.604e+1, 1.583e-4
3.606e+1, 1.584e-4
3.608e+1, 1.585e-4
3.610e+1, 1.585e-4
3.612e+1, 1.584e-4
3.614e+1, 1.586e-4
3.616e+1, 1.585e-4
3.618e+1, 1.584e-4
3.620e+1, 1.584e-4
3.622e+1, 1.586e-4
3.624e+1, 1.583e-4
3.626e+1, 1.581e-4
3.628e+1, 1.580e-4
3.630e+1, 1.581e-4
3.632e+1, 1.582e-4
3.634e+1, 1.578e-4
3.636e+1, 1.576e-4
3.638e+1, 1.573e-4
3.640e+1, 1.574e-4
3.642e+1, 1.579e-4
3.644e+1, 1.584e-4
3.646e+1, 1.587e-4
3.648e+1, 1.591e-4
3.650e+1, 1.596e-4
3.652e+1, 1.598e-4
3.654e+1, 1.601e-4
3.656e+1, 1.599e-4
3.658e+1, 1.599e-4
3.660e+1, 1.600e-4
3.662e+1, 1.602e-4
3.664e+1, 1.605e-4
3.666e+1, 1.604e-4
3.668e+1, 1.602e-4
3.670e+1, 1.602e-4
3.672e+1, 1.602e-4
3.674e+1, 1.602e-4
3.676e+1, 1.603e-4
3.678e+1, 1.604e-4
3.680e+1, 1.602e-4
3.682e+1, 1.602e-4
3.684e+1, 1.602e-4
3.686e+1, 1.602e-4
3.688e+1, 1.602e-4
3.690e+1, 1.601e-4
3.692e+1, 1.601e-4
3.694e+1, 1.601e-4
3.696e+1, 1.600e-4
3.698e+1, 1.600e-4
3.700e+1, 1.598e-4
3.702e+1, 1.596e-4
3.704e+1, 1.596e-4
3.706e+1, 1.598e-4
3.708e+1, 1.597e-4
3.710e+1, 1.590e-4
3.712e+1, 1.586e-4
3.714e+1, 1.586e-4
3.716e+1, 1.588e-4
3.718e+1, 1.587e-4
3.720e+1, 1.590e-4
3.722e+1, 1.598e-4
3.724e+1, 1.600e-4
3.726e+1, 1.602e-4
3.728e+1, 1.601e-4
3.730e+1, 1.599e-4
3.732e+1, 1.599e-4
3.734e+1, 1.603e-4
3.736e+1, 1.606e-4
3.738e+1, 1.606e-4
3.740e+1, 1.608e-4
3.742e+1, 1.607e-4
3.744e+1, 1.607e-4
3.746e+1, 1.606e-4
3.748e+1, 1.607e-4
3.750e+1, 1.606e-4
3.752e+1, 1.608e-4
3.754e+1, 1.607e-4
3.756e+1, 1.606e-4
3.758e+1, 1.606e-4
3.760e+1, 1.606e-4
3.762e+1, 1.605e-4
3.764e+1, 1.603e-4
3.766e+1, 1.601e-4
3.768e+1, 1.601e-4
3.770e+1, 1.601e-4
3.772e+1, 1.600e-4
3.774e+1, 1.599e-4
3.776e+1, 1.596e-4
3.778e+1, 1.592e-4
3.780e+1, 1.591e-4
3.782e+1, 1.593e-4
3.784e+1, 1.593e-4
3.786e+1, 1.586e-4
3.788e+1, 1.584e-4
3.790e+1, 1.582e-4
3.792e+1, 1.584e-4
3.794e+1, 1.587e-4
3.796e+1, 1.588e-4
3.798e+1, 1.589e-4
3.800e+1, 1.592e-4
3.802e+1, 1.592e-4
3.804e+1, 1.592e-4
3.806e+1, 1.592e-4
3.808e+1, 1.587e-4
3.810e+1, 1.586e-4
3.812e+1, 1.588e-4
3.814e+1, 1.590e-4
3.816e+1, 1.591e-4
3.818e+1, 1.591e-4
3.820e+1, 1.592e-4
3.822e+1, 1.591e-4
3.824e+1, 1.589e-4
3.826e+1, 1.590e-4
3.828e+1, 1.588e-4
3.830e+1, 1.588e-4
3.832e+1, 1.589e-4
3.834e+1, 1.588e-4
3.836e+1, 1.587e-4
3.838e+1, 1.586e-4
3.840e+1, 1.587e-4
3.842e+1, 1.586e-4
3.844e+1, 1.586e-4
3.846e+1, 1.587e-4
3.848e+1, 1.586e-4
3.850e+1, 1.588e-4
3.852e+1, 1.588e-4
3.854e+1, 1.588e-4
3.856e+1, 1.587e-4
3.858e+1, 1.589e-4
3.860e+1, 1.588e-4
3.862e+1, 1.585e-4
3.864e+1, 1.581e-4
3.866e+1, 1.578e-4
3.868e+1, 1.578e-4
3.870e+1, 1.581e-4
3.872e+1, 1.584e-4
3.874e+1, 1.585e-4
3.876e+1, 1.588e-4
3.878e+1, 1.588e-4
3.880e+1, 1.590e-4
3.882e+1, 1.592e-4
3.884e+1, 1.589e-4
3.886e+1, 1.585e-4
3.888e+1, 1.587e-4
3.890e+1, 1.590e-4
3.892e+1, 1.591e-4
3.894e+1, 1.592e-4
3.896e+1, 1.592e-4
3.898e+1, 1.593e-4
3.900e+1, 1.596e-4
3.902e+1, 1.595e-4
3.904e+1, 1.597e-4
3.906e+1, 1.598e-4
3.908e+1, 1.597e-4
3.910e+1, 1.595e-4
3.912e+1, 1.594e-4
3.914e+1, 1.593e-4
3.916e+1, 1.594e-4
3.918e+1, 1.593e-4
3.920e+1, 1.595e-4
3.922e+1, 1.594e-4
3.924e+1, 1.595e-4
3.926e+1, 1.595e-4
3.928e+1, 1.596e-4
3.930e+1, 1.597e-4
3.932e+1, 1.598e-4
3.934e+1, 1.600e-4
3.936e+1, 1.595e-4
3.938e+1, 1.591e-4
3.940e+1, 1.590e-4
3.942e+1, 1.592e-4
3.944e+1, 1.593e-4
3.946e+1, 1.594e-4
3.948e+1, 1.597e-4
3.950e+1, 1.599e-4
3.952e+1, 1.600e-4
3.954e+1, 1.603e-4
3.956e+1, 1.603e-4
3.958e+1, 1.604e-4
3.960e+1, 1.606e-4
3.962e+1, 1.607e-4
3.964e+1, 1.609e-4
3.966e+1, 1.610e-4
3.968e+1, 1.610e-4
3.970e+1, 1.610e-4
3.972e+1, 1.609e-4
3.974e+1, 1.610e-4
3.976e+1, 1.609e-4
3.978e+1, 1.608e-4
3.980e+1, 1.607e-4
3.982e+1, 1.608e-4
3.984e+1, 1.608e-4
3.986e+1, 1.607e-4
3.988e+1, 1.606e-4
3.990e+1, 1.606e-4
3.992e+1, 1.608e-4
3.994e+1, 1.608e-4
3.996e+1, 1.608e-4
3.998e+1, 1.609e-4
4.000e+1, 1.611e-4
4.002e+1, 1.610e-4
4.004e+1, 1.610e-4
4.006e+1, 1.610e-4
4.008e+1, 1.612e-4
4.010e+1, 1.612e-4
4.012e+1, 1.612e-4
4.014e+1, 1.610e-4
4.016e+1, 1.608e-4
4.018e+1, 1.612e-4
4.020e+1, 1.615e-4
4.022e+1, 1.615e-4
4.024e+1, 1.618e-4
4.026e+1, 1.620e-4
4.028e+1, 1.623e-4
4.030e+1, 1.624e-4
4.032e+1, 1.624e-4
4.034e+1, 1.622e-4
4.036e+1, 1.624e-4
4.038e+1, 1.626e-4
4.040e+1, 1.627e-4
4.042e+1, 1.629e-4
4.044e+1, 1.630e-4
4.046e+1, 1.632e-4
4.048e+1, 1.633e-4
4.050e+1, 1.632e-4
4.052e+1, 1.632e-4
4.054e+1, 1.631e-4
4.056e+1, 1.633e-4
4.058e+1, 1.633e-4
4.060e+1, 1.631e-4
4.062e+1, 1.630e-4
4.064e+1, 1.631e-4
4.066e+1, 1.631e-4
4.068e+1, 1.633e-4
4.070e+1, 1.632e-4
4.072e+1, 1.632e-4
4.074e+1, 1.632e-4
4.076e+1, 1.631e-4
4.078e+1, 1.629e-4
4.080e+1, 1.628e-4
4.082e+1, 1.625e-4
4.084e+1, 1.629e-4
4.086e+1, 1.628e-4
4.088e+1, 1.625e-4
4.090e+1, 1.619e-4
4.092e+1, 1.617e-4
4.094e+1, 1.619e-4
4.096e+1, 1.621e-4
4.098e+1, 1.625e-4
4.100e+1, 1.627e-4
4.102e+1, 1.631e-4
4.104e+1, 1.631e-4
4.106e+1, 1.633e-4
4.108e+1, 1.636e-4
4.110e+1, 1.635e-4
4.112e+1, 1.637e-4
4.114e+1, 1.639e-4
4.116e+1, 1.640e-4
4.118e+1, 1.641e-4
4.120e+1, 1.642e-4
4.122e+1, 1.642e-4
4.124e+1, 1.642e-4
4.126e+1, 1.640e-4
4.128e+1, 1.639e-4
4.130e+1, 1.639e-4
4.132e+1, 1.638e-4
4.134e+1, 1.638e-4
4.136e+1, 1.639e-4
4.138e+1, 1.638e-4
4.140e+1, 1.637e-4
4.142e+1, 1.638e-4
4.144e+1, 1.635e-4
4.146e+1, 1.633e-4
4.148e+1, 1.634e-4
4.150e+1, 1.632e-4
4.152e+1, 1.629e-4
4.154e+1, 1.631e-4
4.156e+1, 1.632e-4
4.158e+1, 1.629e-4
4.160e+1, 1.629e-4
4.162e+1, 1.629e-4
4.164e+1, 1.625e-4
4.166e+1, 1.619e-4
4.168e+1, 1.611e-4
4.170e+1, 1.609e-4
4.172e+1, 1.611e-4
4.174e+1, 1.614e-4
4.176e+1, 1.615e-4
4.178e+1, 1.616e-4
4.180e+1, 1.615e-4
4.182e+1, 1.617e-4
4.184e+1, 1.618e-4
4.186e+1, 1.620e-4
4.188e+1, 1.617e-4
4.190e+1, 1.617e-4
4.192e+1, 1.619e-4
4.194e+1, 1.620e-4
4.196e+1, 1.621e-4
4.198e+1, 1.622e-4
4.200e+1, 1.623e-4
4.202e+1, 1.624e-4
4.204e+1, 1.624e-4
4.206e+1, 1.625e-4
4.208e+1, 1.625e-4
4.210e+1, 1.624e-4
4.212e+1, 1.623e-4
4.214e+1, 1.623e-4
4.216e+1, 1.624e-4
4.218e+1, 1.623e-4
4.220e+1, 1.623e-4
4.222e+1, 1.622e-4
4.224e+1, 1.622e-4
4.226e+1, 1.623e-4
4.228e+1, 1.623e-4
4.230e+1, 1.624e-4
4.232e+1, 1.623e-4
4.234e+1, 1.624e-4
4.236e+1, 1.626e-4
4.238e+1, 1.625e-4
4.240e+1, 1.622e-4
4.242e+1, 1.619e-4
4.244e+1, 1.620e-4
4.246e+1, 1.622e-4
4.248e+1, 1.624e-4
4.250e+1, 1.628e-4
4.252e+1, 1.629e-4
4.254e+1, 1.631e-4
4.256e+1, 1.633e-4
4.258e+1, 1.633e-4
4.260e+1, 1.632e-4
4.262e+1, 1.631e-4
4.264e+1, 1.635e-4
4.266e+1, 1.635e-4
4.268e+1, 1.635e-4
4.270e+1, 1.636e-4
4.272e+1, 1.637e-4
4.274e+1, 1.637e-4
4.276e+1, 1.637e-4
4.278e+1, 1.636e-4
4.280e+1, 1.637e-4
4.282e+1, 1.637e-4
4.284e+1, 1.637e-4
4.286e+1, 1.638e-4
4.288e+1, 1.638e-4
4.290e+1, 1.640e-4
4.292e+1, 1.640e-4
4.294e+1, 1.641e-4
4.296e+1, 1.640e-4
4.298e+1, 1.641e-4
4.300e+1, 1.638e-4
4.302e+1, 1.638e-4
4.304e+1, 1.636e-4
4.306e+1, 1.638e-4
4.308e+1, 1.639e-4
4.310e+1, 1.639e-4
4.312e+1, 1.639e-4
4.314e+1, 1.638e-4
4.316e+1, 1.637e-4
4.318e+1, 1.641e-4
4.320e+1, 1.646e-4
4.322e+1, 1.646e-4
4.324e+1, 1.648e-4
4.326e+1, 1.650e-4
4.328e+1, 1.651e-4
4.330e+1, 1.653e-4
4.332e+1, 1.654e-4
4.334e+1, 1.654e-4
4.336e+1, 1.656e-4
4.338e+1, 1.658e-4
4.340e+1, 1.659e-4
4.342e+1, 1.661e-4
4.344e+1, 1.661e-4
4.346e+1, 1.661e-4
4.348e+1, 1.659e-4
4.350e+1, 1.660e-4
4.352e+1, 1.660e-4
4.354e+1, 1.659e-4
4.356e+1, 1.660e-4
4.358e+1, 1.661e-4
4.360e+1, 1.662e-4
4.362e+1, 1.660e-4
4.364e+1, 1.659e-4
4.366e+1, 1.661e-4
4.368e+1, 1.660e-4
4.370e+1, 1.660e-4
4.372e+1, 1.658e-4
4.374e+1, 1.658e-4
4.376e+1, 1.660e-4
4.378e+1, 1.660e-4
4.380e+1, 1.658e-4
4.382e+1, 1.656e-4
4.384e+1, 1.655e-4
4.386e+1, 1.653e-4
4.388e+1, 1.649e-4
4.390e+1, 1.645e-4
4.392e+1, 1.645e-4
4.394e+1, 1.645e-4
4.396e+1, 1.644e-4
4.398e+1, 1.645e-4
4.400e+1, 1.646e-4
4.402e+1, 1.649e-4
4.404e+1, 1.651e-4
4.406e+1, 1.652e-4
4.408e+1, 1.653e-4
4.410e+1, 1.652e-4
4.412e+1, 1.655e-4
4.414e+1, 1.657e-4
4.416e+1, 1.658e-4
4.418e+1, 1.659e-4
4.420e+1, 1.661e-4
4.422e+1, 1.661e-4
4.424e+1, 1.659e-4
4.426e+1, 1.659e-4
4.428e+1, 1.659e-4
4.430e+1, 1.658e-4
4.432e+1, 1.656e-4
4.434e+1, 1.657e-4
4.436e+1, 1.657e-4
4.438e+1, 1.655e-4
4.440e+1, 1.654e-4
4.442e+1, 1.654e-4
4.444e+1, 1.653e-4
4.446e+1, 1.652e-4
4.448e+1, 1.652e-4
4.450e+1, 1.653e-4
4.452e+1, 1.653e-4
4.454e+1, 1.650e-4
4.456e+1, 1.647e-4
4.458e+1, 1.648e-4
4.460e+1, 1.649e-4
4.462e+1, 1.648e-4
4.464e+1, 1.640e-4
4.466e+1, 1.631e-4
4.468e+1, 1.628e-4
4.470e+1, 1.630e-4
4.472e+1, 1.633e-4
4.474e+1, 1.634e-4
4.476e+1, 1.635e-4
4.478e+1, 1.637e-4
4.480e+1, 1.638e-4
4.482e+1, 1.640e-4
4.484e+1, 1.638e-4
4.486e+1, 1.637e-4
4.488e+1, 1.637e-4
4.490e+1, 1.641e-4
4.492e+1, 1.642e-4
4.494e+1, 1.643e-4
4.496e+1, 1.643e-4
4.498e+1, 1.643e-4
4.500e+1, 1.642e-4
4.502e+1, 1.639e-4
4.504e+1, 1.639e-4
4.506e+1, 1.638e-4
4.508e+1, 1.638e-4
4.510e+1, 1.638e-4
4.512e+1, 1.638e-4
4.514e+1, 1.637e-4
4.516e+1, 1.637e-4
4.518e+1, 1.637e-4
4.520e+1, 1.637e-4
4.522e+1, 1.636e-4
4.524e+1, 1.635e-4
4.526e+1, 1.635e-4
4.528e+1, 1.635e-4
4.530e+1, 1.634e-4
4.532e+1, 1.632e-4
4.534e+1, 1.631e-4
4.536e+1, 1.629e-4
4.538e+1, 1.628e-4
4.540e+1, 1.628e-4
4.542e+1, 1.626e-4
4.544e+1, 1.619e-4
4.546e+1, 1.615e-4
4.548e+1, 1.616e-4
4.550e+1, 1.618e-4
4.552e+1, 1.621e-4
4.554e+1, 1.621e-4
4.556e+1, 1.621e-4
4.558e+1, 1.623e-4
4.560e+1, 1.625e-4
4.562e+1, 1.625e-4
4.564e+1, 1.625e-4
4.566e+1, 1.623e-4
4.568e+1, 1.625e-4
4.570e+1, 1.627e-4
4.572e+1, 1.629e-4
4.574e+1, 1.629e-4
4.576e+1, 1.629e-4
4.578e+1, 1.629e-4
4.580e+1, 1.628e-4
4.582e+1, 1.622e-4
4.584e+1, 1.617e-4
4.586e+1, 1.609e-4
4.588e+1, 1.608e-4
4.590e+1, 1.608e-4
4.592e+1, 1.608e-4
4.594e+1, 1.607e-4
4.596e+1, 1.609e-4
4.598e+1, 1.609e-4
4.600e+1, 1.611e-4
4.602e+1, 1.614e-4
4.604e+1, 1.618e-4
4.606e+1, 1.619e-4
4.608e+1, 1.617e-4
4.610e+1, 1.615e-4
4.612e+1, 1.617e-4
4.614e+1, 1.618e-4
4.616e+1, 1.617e-4
4.618e+1, 1.613e-4
4.620e+1, 1.610e-4
4.622e+1, 1.609e-4
4.624e+1, 1.610e-4
4.626e+1, 1.612e-4
4.628e+1, 1.613e-4
4.630e+1, 1.615e-4
4.632e+1, 1.619e-4
4.634e+1, 1.622e-4
4.636e+1, 1.622e-4
4.638e+1, 1.620e-4
4.640e+1, 1.620e-4
4.642e+1, 1.622e-4
4.644e+1, 1.624e-4
4.646e+1, 1.626e-4
4.648e+1, 1.628e-4
4.650e+1, 1.629e-4
4.652e+1, 1.628e-4
4.654e+1, 1.627e-4
4.656e+1, 1.628e-4
4.658e+1, 1.628e-4
4.660e+1, 1.628e-4
4.662e+1, 1.628e-4
4.664e+1, 1.630e-4
4.666e+1, 1.629e-4
4.668e+1, 1.631e-4
4.670e+1, 1.632e-4
4.672e+1, 1.632e-4
4.674e+1, 1.631e-4
4.676e+1, 1.632e-4
4.678e+1, 1.633e-4
4.680e+1, 1.634e-4
4.682e+1, 1.633e-4
4.684e+1, 1.633e-4
4.686e+1, 1.633e-4
4.688e+1, 1.629e-4
4.690e+1, 1.619e-4
4.692e+1, 1.604e-4
4.694e+1, 1.600e-4
4.696e+1, 1.608e-4
4.698e+1, 1.613e-4
4.700e+1, 1.615e-4
4.702e+1, 1.618e-4
4.704e+1, 1.621e-4
4.706e+1, 1.623e-4
4.708e+1, 1.625e-4
4.710e+1, 1.626e-4
4.712e+1, 1.624e-4
4.714e+1, 1.628e-4
4.716e+1, 1.631e-4
4.718e+1, 1.633e-4
4.720e+1, 1.634e-4
4.722e+1, 1.633e-4
4.724e+1, 1.633e-4
4.726e+1, 1.633e-4
4.728e+1, 1.635e-4
4.730e+1, 1.636e-4
4.732e+1, 1.635e-4
4.734e+1, 1.631e-4
4.736e+1, 1.631e-4
4.738e+1, 1.629e-4
4.740e+1, 1.629e-4
4.742e+1, 1.630e-4
4.744e+1, 1.627e-4
4.746e+1, 1.627e-4
4.748e+1, 1.629e-4
4.750e+1, 1.630e-4
4.752e+1, 1.630e-4
4.754e+1, 1.630e-4
4.756e+1, 1.631e-4
4.758e+1, 1.632e-4
4.760e+1, 1.631e-4
4.762e+1, 1.629e-4
4.764e+1, 1.623e-4
4.766e+1, 1.620e-4
4.768e+1, 1.621e-4
4.770e+1, 1.627e-4
4.772e+1, 1.630e-4
4.774e+1, 1.630e-4
4.776e+1, 1.632e-4
4.778e+1, 1.635e-4
4.780e+1, 1.638e-4
4.782e+1, 1.639e-4
4.784e+1, 1.641e-4
4.786e+1, 1.640e-4
4.788e+1, 1.643e-4
4.790e+1, 1.646e-4
4.792e+1, 1.647e-4
4.794e+1, 1.647e-4
4.796e+1, 1.648e-4
4.798e+1, 1.648e-4
4.800e+1, 1.648e-4
4.802e+1, 1.645e-4
4.804e+1, 1.644e-4
4.806e+1, 1.644e-4
4.808e+1, 1.641e-4
4.810e+1, 1.640e-4
4.812e+1, 1.639e-4
4.814e+1, 1.639e-4
4.816e+1, 1.635e-4
4.818e+1, 1.636e-4
4.820e+1, 1.636e-4
4.822e+1, 1.636e-4
4.824e+1, 1.634e-4
4.826e+1, 1.632e-4
4.828e+1, 1.631e-4
4.830e+1, 1.632e-4
4.832e+1, 1.631e-4
4.834e+1, 1.631e-4
4.836e+1, 1.633e-4
4.838e+1, 1.632e-4
4.840e+1, 1.626e-4
4.842e+1, 1.622e-4
4.844e+1, 1.621e-4
4.846e+1, 1.620e-4
4.848e+1, 1.622e-4
4.850e+1, 1.622e-4
4.852e+1, 1.625e-4
4.854e+1, 1.626e-4
4.856e+1, 1.629e-4
4.858e+1, 1.627e-4
4.860e+1, 1.629e-4
4.862e+1, 1.630e-4
4.864e+1, 1.632e-4
4.866e+1, 1.636e-4
4.868e+1, 1.636e-4
4.870e+1, 1.637e-4
4.872e+1, 1.637e-4
4.874e+1, 1.637e-4
4.876e+1, 1.637e-4
4.878e+1, 1.635e-4
4.880e+1, 1.635e-4
4.882e+1, 1.637e-4
4.884e+1, 1.637e-4
4.886e+1, 1.636e-4
4.888e+1, 1.637e-4
4.890e+1, 1.637e-4
4.892e+1, 1.635e-4
4.894e+1, 1.635e-4
4.896e+1, 1.637e-4
4.898e+1, 1.639e-4
4.900e+1, 1.638e-4
4.902e+1, 1.639e-4
4.904e+1, 1.638e-4
4.906e+1, 1.638e-4
4.908e+1, 1.637e-4
4.910e+1, 1.638e-4
4.912e+1, 1.638e-4
4.914e+1, 1.637e-4
4.916e+1, 1.638e-4
4.918e+1, 1.643e-4
4.920e+1, 1.644e-4
4.922e+1, 1.646e-4
4.924e+1, 1.647e-4
4.926e+1, 1.647e-4
4.928e+1, 1.650e-4
4.930e+1, 1.651e-4
4.932e+1, 1.651e-4
4.934e+1, 1.649e-4
4.936e+1, 1.646e-4
4.938e+1, 1.650e-4
4.940e+1, 1.654e-4
4.942e+1, 1.654e-4
4.944e+1, 1.655e-4
4.946e+1, 1.656e-4
4.948e+1, 1.654e-4
4.950e+1, 1.653e-4
4.952e+1, 1.650e-4
4.954e+1, 1.650e-4
4.956e+1, 1.650e-4
4.958e+1, 1.652e-4
4.960e+1, 1.652e-4
4.962e+1, 1.653e-4
4.964e+1, 1.653e-4
4.966e+1, 1.653e-4
4.968e+1, 1.653e-4
4.970e+1, 1.654e-4
4.972e+1, 1.654e-4
4.974e+1, 1.654e-4
4.976e+1, 1.653e-4
4.978e+1, 1.653e-4
4.980e+1, 1.655e-4
4.982e+1, 1.658e-4
4.984e+1, 1.658e-4
4.986e+1, 1.660e-4
4.988e+1, 1.659e-4
4.990e+1, 1.653e-4
4.992e+1, 1.647e-4
4.994e+1, 1.648e-4
4.996e+1, 1.651e-4
4.998e+1, 1.654e-4
5.000e+1, 1.656e-4
5.002e+1, 1.659e-4
5.004e+1, 1.661e-4
5.006e+1, 1.662e-4
5.008e+1, 1.665e-4
5.010e+1, 1.664e-4
5.012e+1, 1.662e-4
5.014e+1, 1.660e-4
5.016e+1, 1.664e-4
5.018e+1, 1.667e-4
5.020e+1, 1.667e-4
5.022e+1, 1.667e-4
5.024e+1, 1.670e-4
5.026e+1, 1.670e-4
5.028e+1, 1.670e-4
5.030e+1, 1.669e-4
5.032e+1, 1.668e-4
5.034e+1, 1.668e-4
5.036e+1, 1.668e-4
5.038e+1, 1.666e-4
5.040e+1, 1.666e-4
5.042e+1, 1.665e-4
5.044e+1, 1.664e-4
5.046e+1, 1.665e-4
5.048e+1, 1.663e-4
5.050e+1, 1.662e-4
5.052e+1, 1.662e-4
5.054e+1, 1.664e-4
5.056e+1, 1.665e-4
5.058e+1, 1.667e-4
5.060e+1, 1.665e-4
5.062e+1, 1.663e-4
5.064e+1, 1.664e-4
5.066e+1, 1.665e-4
5.068e+1, 1.660e-4
5.070e+1, 1.656e-4
5.072e+1, 1.655e-4
5.074e+1, 1.658e-4
5.076e+1, 1.662e-4
5.078e+1, 1.662e-4
5.080e+1, 1.664e-4
5.082e+1, 1.668e-4
5.084e+1, 1.669e-4
5.086e+1, 1.670e-4
5.088e+1, 1.671e-4
5.090e+1, 1.670e-4
5.092e+1, 1.669e-4
5.094e+1, 1.672e-4
5.096e+1, 1.673e-4
5.098e+1, 1.673e-4
5.100e+1, 1.673e-4
5.102e+1, 1.674e-4
5.104e+1, 1.672e-4
5.106e+1, 1.672e-4
5.108e+1, 1.672e-4
5.110e+1, 1.672e-4
5.112e+1, 1.672e-4
5.114e+1, 1.672e-4
5.116e+1, 1.672e-4
5.118e+1, 1.670e-4
5.120e+1, 1.670e-4
5.122e+1, 1.669e-4
5.124e+1, 1.668e-4
5.126e+1, 1.666e-4
5.128e+1, 1.665e-4
5.130e+1, 1.663e-4
5.132e+1, 1.661e-4
5.134e+1, 1.662e-4
5.136e+1, 1.661e-4
5.138e+1, 1.661e-4
5.140e+1, 1.659e-4
5.142e+1, 1.657e-4
5.144e+1, 1.656e-4
5.146e+1, 1.655e-4
5.148e+1, 1.653e-4
5.150e+1, 1.645e-4
5.152e+1, 1.640e-4
5.154e+1, 1.641e-4
5.156e+1, 1.644e-4
5.158e+1, 1.647e-4
5.160e+1, 1.649e-4
5.162e+1, 1.647e-4
5.164e+1, 1.648e-4
5.166e+1, 1.649e-4
5.168e+1, 1.651e-4
5.170e+1, 1.651e-4
5.172e+1, 1.651e-4
5.174e+1, 1.652e-4
5.176e+1, 1.656e-4
5.178e+1, 1.658e-4
5.180e+1, 1.659e-4
5.182e+1, 1.660e-4
5.184e+1, 1.661e-4
5.186e+1, 1.660e-4
5.188e+1, 1.661e-4
5.190e+1, 1.660e-4
5.192e+1, 1.658e-4
5.194e+1, 1.655e-4
5.196e+1, 1.652e-4
5.198e+1, 1.651e-4
5.200e+1, 1.653e-4
5.202e+1, 1.653e-4
5.204e+1, 1.652e-4
5.206e+1, 1.652e-4
5.208e+1, 1.653e-4
5.210e+1, 1.654e-4
5.212e+1, 1.654e-4
5.214e+1, 1.654e-4
5.216e+1, 1.655e-4
5.218e+1, 1.655e-4
5.220e+1, 1.655e-4
5.222e+1, 1.653e-4
5.224e+1, 1.654e-4
5.226e+1, 1.655e-4
5.228e+1, 1.652e-4
5.230e+1, 1.645e-4
5.232e+1, 1.644e-4
5.234e+1, 1.643e-4
5.236e+1, 1.646e-4
5.238e+1, 1.648e-4
5.240e+1, 1.649e-4
5.242e+1, 1.646e-4
5.244e+1, 1.646e-4
5.246e+1, 1.648e-4
5.248e+1, 1.650e-4
5.250e+1, 1.650e-4
5.252e+1, 1.649e-4
5.254e+1, 1.652e-4
5.256e+1, 1.655e-4
5.258e+1, 1.656e-4
5.260e+1, 1.658e-4
5.262e+1, 1.660e-4
5.264e+1, 1.662e-4
5.266e+1, 1.662e-4
5.268e+1, 1.661e-4
5.270e+1, 1.663e-4
5.272e+1, 1.664e-4
5.274e+1, 1.663e-4
5.276e+1, 1.664e-4
5.278e+1, 1.665e-4
5.280e+1, 1.665e-4
5.282e+1, 1.666e-4
5.284e+1, 1.668e-4
5.286e+1, 1.667e-4
5.288e+1, 1.666e-4
5.290e+1, 1.665e-4
5.292e+1, 1.665e-4
5.294e+1, 1.663e-4
5.296e+1, 1.663e-4
5.298e+1, 1.663e-4
5.300e+1, 1.663e-4
5.302e+1, 1.661e-4
5.304e+1, 1.660e-4
5.306e+1, 1.663e-4
5.308e+1, 1.665e-4
5.310e+1, 1.669e-4
5.312e+1, 1.672e-4
5.314e+1, 1.674e-4
5.316e+1, 1.675e-4
5.318e+1, 1.677e-4
5.320e+1, 1.679e-4
5.322e+1, 1.681e-4
5.324e+1, 1.680e-4
5.326e+1, 1.678e-4
5.328e+1, 1.680e-4
5.330e+1, 1.682e-4
5.332e+1, 1.683e-4
5.334e+1, 1.682e-4
5.336e+1, 1.684e-4
5.338e+1, 1.685e-4
5.340e+1, 1.683e-4
5.342e+1, 1.682e-4
5.344e+1, 1.681e-4
5.346e+1, 1.681e-4
5.348e+1, 1.680e-4
5.350e+1, 1.680e-4
5.352e+1, 1.681e-4
5.354e+1, 1.684e-4
5.356e+1, 1.685e-4
5.358e+1, 1.684e-4
5.360e+1, 1.684e-4
5.362e+1, 1.683e-4
5.364e+1, 1.682e-4
5.366e+1, 1.681e-4
5.368e+1, 1.681e-4
5.370e+1, 1.679e-4
5.372e+1, 1.679e-4
5.374e+1, 1.676e-4
5.376e+1, 1.675e-4
5.378e+1, 1.673e-4
5.380e+1, 1.672e-4
5.382e+1, 1.662e-4
5.384e+1, 1.649e-4
5.386e+1, 1.632e-4
5.388e+1, 1.615e-4
5.390e+1, 1.609e-4
5.392e+1, 1.608e-4
5.394e+1, 1.604e-4
5.396e+1, 1.602e-4
5.398e+1, 1.598e-4
5.400e+1, 1.599e-4
5.402e+1, 1.601e-4
5.404e+1, 1.601e-4
5.406e+1, 1.602e-4
5.408e+1, 1.602e-4
5.410e+1, 1.605e-4
5.412e+1, 1.604e-4
5.414e+1, 1.601e-4
5.416e+1, 1.597e-4
5.418e+1, 1.596e-4
5.420e+1, 1.595e-4
5.422e+1, 1.593e-4
5.424e+1, 1.592e-4
5.426e+1, 1.591e-4
5.428e+1, 1.590e-4
5.430e+1, 1.589e-4
5.432e+1, 1.588e-4
5.434e+1, 1.585e-4
5.436e+1, 1.583e-4
5.438e+1, 1.577e-4
5.440e+1, 1.575e-4
5.442e+1, 1.575e-4
5.444e+1, 1.571e-4
5.446e+1, 1.565e-4
5.448e+1, 1.565e-4
5.450e+1, 1.563e-4
5.452e+1, 1.554e-4
5.454e+1, 1.553e-4
5.456e+1, 1.552e-4
5.458e+1, 1.566e-4
5.460e+1, 1.595e-4
5.462e+1, 1.604e-4
5.464e+1, 1.601e-4
5.466e+1, 1.598e-4
5.468e+1, 1.600e-4
5.470e+1, 1.606e-4
5.472e+1, 1.612e-4
5.474e+1, 1.617e-4
5.476e+1, 1.620e-4
5.478e+1, 1.620e-4
5.480e+1, 1.620e-4
5.482e+1, 1.622e-4
5.484e+1, 1.621e-4
5.486e+1, 1.625e-4
5.488e+1, 1.627e-4
5.490e+1, 1.630e-4
5.492e+1, 1.632e-4
5.494e+1, 1.632e-4
5.496e+1, 1.635e-4
5.498e+1, 1.635e-4
5.500e+1, 1.633e-4
5.502e+1, 1.632e-4
5.504e+1, 1.632e-4
5.506e+1, 1.631e-4
5.508e+1, 1.632e-4
5.510e+1, 1.634e-4
5.512e+1, 1.632e-4
5.514e+1, 1.630e-4
5.516e+1, 1.630e-4
5.518e+1, 1.627e-4
5.520e+1, 1.623e-4
5.522e+1, 1.616e-4
5.524e+1, 1.609e-4
5.526e+1, 1.607e-4
5.528e+1, 1.600e-4
5.530e+1, 1.594e-4
5.532e+1, 1.602e-4
5.534e+1, 1.605e-4
5.536e+1, 1.610e-4
5.538e+1, 1.611e-4
5.540e+1, 1.615e-4
5.542e+1, 1.621e-4
5.544e+1, 1.623e-4
5.546e+1, 1.622e-4
5.548e+1, 1.622e-4
5.550e+1, 1.625e-4
5.552e+1, 1.630e-4
5.554e+1, 1.632e-4
5.556e+1, 1.633e-4
5.558e+1, 1.633e-4
5.560e+1, 1.634e-4
5.562e+1, 1.636e-4
5.564e+1, 1.635e-4
5.566e+1, 1.634e-4
5.568e+1, 1.637e-4
5.570e+1, 1.638e-4
5.572e+1, 1.638e-4
5.574e+1, 1.637e-4
5.576e+1, 1.639e-4
5.578e+1, 1.640e-4
5.580e+1, 1.639e-4
5.582e+1, 1.637e-4
5.584e+1, 1.637e-4
5.586e+1, 1.637e-4
5.588e+1, 1.638e-4
5.590e+1, 1.638e-4
5.592e+1, 1.638e-4
5.594e+1, 1.638e-4
5.596e+1, 1.633e-4
5.598e+1, 1.551e-4
5.600e+1, 1.321e-4
5.602e+1, 1.326e-4
5.604e+1, 1.260e-4
5.606e+1, 1.545e-4
5.608e+1, 1.587e-4
5.610e+1, 1.584e-4
5.612e+1, 1.550e-4
5.614e+1, 1.414e-4
5.616e+1, 9.776e-5
5.618e+1, 4.391e-5
5.620e+1, 1.096e-6
5.622e+1, 4.595e-6
5.624e+1, 1.021e-4
5.626e+1, 1.398e-4
5.628e+1, 1.410e-4
5.630e+1, 1.415e-4
5.632e+1, 1.416e-4
5.634e+1, 1.415e-4
5.636e+1, 1.416e-4
5.638e+1, 1.407e-4
5.640e+1, 1.403e-4
5.642e+1, 1.401e-4
5.644e+1, 1.390e-4
5.646e+1, 1.371e-4
5.648e+1, 1.361e-4
5.650e+1, 1.337e-4
5.652e+1, 1.323e-4
5.654e+1, 1.314e-4
5.656e+1, 1.311e-4
5.658e+1, 1.306e-4
5.660e+1, 1.300e-4
5.662e+1, 1.306e-4
5.664e+1, 1.338e-4
5.666e+1, 1.354e-4
5.668e+1, 1.334e-4
5.670e+1, 1.310e-4
5.672e+1, 1.265e-4
5.674e+1, 1.244e-4
5.676e+1, 1.257e-4
5.678e+1, 1.284e-4
