23/12/15 16:17:55
,Ch,,Vanode(Vout1)
Time (s),I (A),ΔI/I0 (%),Voltage(V)
0.018000001087784767,7.1427E-5,0.0,0.5000
0.07400000095367432,7.3044E-5,0.0,0.5000
0.13199999928474426,7.3219E-5,0.0,0.5000
0.18900001049041748,7.3611E-5,0.0,0.5000
0.23999999463558197,7.4558E-5,0.0,0.5000
0.2980000078678131,7.365E-5,0.0,0.5000
0.3659999966621399,7.464E-5,0.0,0.5000
0.4189999997615814,7.7009E-5,0.0,0.5000
0.4749999940395355,7.3206E-5,0.0,0.5000
0.5260000228881836,7.2856E-5,0.0,0.5000
0.5760000348091125,7.2492E-5,0.0,0.5000
0.6540000438690186,7.3853E-5,0.0,0.5000
0.7050000429153442,7.6533E-5,0.0,0.5000
0.7580000758171082,7.5204E-5,0.0,0.5000
0.8100001215934753,7.2963E-5,0.0,0.5000
0.8660000562667847,7.2132E-5,0.0,0.5000
0.9170001149177551,7.4726E-5,0.0,0.5000
0.9810001254081726,7.6699E-5,0.0,0.5000
1.033000111579895,7.6316E-5,0.0,0.5000
1.0990002155303955,7.6537E-5,0.2895853297105453,0.5000
1.1500000953674316,7.7952E-5,2.143717040410091,0.5000
1.220000147819519,7.7971E-5,2.168619815191284,0.5000
1.279000163078308,7.5689E-5,-0.821581820059147,0.5000
1.3350001573562622,7.5496E-5,-1.0744803667076597,0.5000
1.3870002031326294,7.4385E-5,-2.530263020780946,0.5000
1.445000171661377,7.4015E-5,-3.015094876044341,0.5000
1.4970000982284546,7.689E-5,0.7521362566953617,0.5000
1.5490001440048218,7.7085E-5,1.0076566498464885,0.5000
1.6060000658035278,7.8354E-5,2.670479371740747,0.5000
1.6700000762939453,7.5514E-5,-1.0508932821714152,0.5000
1.7300000190734863,7.8092E-5,2.3271700236948187,0.5000
1.7949999570846558,7.7113E-5,1.0443434329085213,0.5000
1.847000002861023,7.6654E-5,0.44290137919613426,0.5000
1.8990000486373901,7.8632E-5,3.0347539578203055,0.5000
1.9610000848770142,7.6971E-5,0.8582781371084617,0.5000
2.0250000953674316,7.6937E-5,0.813725814538587,0.5000
2.0890002250671387,7.9458E-5,4.117090330048525,0.5000
2.140000104904175,7.9975E-5,4.794537330374873,0.5000
2.204000234603882,7.948E-5,4.145921107589998,0.5000
2.256000518798828,7.8397E-5,2.726825236578744,0.5000
2.316000461578369,7.8929E-5,3.4239217846937744,0.5000
2.375000476837158,8.0736E-5,5.791706594210906,0.5000
2.4270005226135254,8.1221E-5,6.4272231184699935,0.5000
2.4810004234313965,7.9438E-5,4.090890932996949,0.5000
2.5340003967285156,7.9564E-5,4.255990990763378,0.5000
2.586000442504883,8.169E-5,7.04177440469545,0.5000
2.640000343322754,7.9471E-5,4.134127565321875,0.5000
2.701000213623047,7.907E-5,3.6086809242361677,0.5000
2.752000331878662,7.8521E-5,2.889303447842559,0.5000
2.8340003490448,7.6134E-5,-0.2384831578777764,0.5000
2.894000291824341,8.0654E-5,5.684258557540139,0.5000
2.946000576019287,7.8671E-5,3.085856129653074,0.5000
3.017000436782837,7.6877E-5,0.7350990214220113,0.5000
3.073000431060791,7.6854E-5,0.7049620876228728,0.5000
3.14400053024292,7.678E-5,0.6080014369625633,0.5000
3.202000617980957,8.2543E-5,8.15950093771532,0.5000
3.256000518798828,8.8478E-5,15.936374363832781,0.5000
3.3070006370544434,8.1225E-5,6.432466811475221,0.5000
3.3610007762908936,8.0854E-5,5.946328799954161,0.5000
3.4120006561279297,8.0941E-5,6.060326685887821,0.5000
3.464000701904297,8.0283E-5,5.1981300800063615,0.5000
3.520000696182251,7.9475E-5,4.139371258327103,0.5000
3.571000814437866,7.7625E-5,1.7152405839719755,0.5000
3.6240007877349854,7.8016E-5,2.2275779925446124,0.5000
3.6780006885528564,7.9658E-5,4.379160572462546,0.5000
3.7340006828308105,8.0063E-5,4.909850906553482,0.5000
3.7990007400512695,8.2615E-5,8.253839741873016,0.5000
3.8550007343292236,8.0983E-5,6.115366394468151,0.5000
3.9150009155273438,7.6476E-5,0.2096523803363038,0.5000
3.967000961303711,7.7617E-5,1.7047531979615191,0.5000
4.018001079559326,7.7968E-5,2.1646822784437214,0.5000
4.078001022338867,7.9589E-5,4.28874977106513,0.5000
4.132000923156738,7.9525E-5,4.204888818930609,0.5000
4.186000823974609,7.8946E-5,3.446202712972353,0.5000
4.237000465393066,7.7258E-5,1.2343462654561428,0.5000
4.291000843048096,7.7272E-5,1.252689656987159,0.5000
4.345001220703125,8.1856E-5,7.259292324539597,0.5000
4.408000946044922,7.9903E-5,4.700198526217178,0.5000
4.463001251220703,7.7377E-5,1.3902746274570634,0.5000
4.540001392364502,7.7464E-5,1.5042725133907233,0.5000
4.592001438140869,7.7733E-5,1.85675355720216,0.5000
4.643001556396484,7.6926E-5,0.7993104257678506,0.5000
4.6940016746521,7.5436E-5,-1.153097625836953,0.5000
4.753002166748047,7.5806E-5,-0.6682753045608402,0.5000
4.817001819610596,7.7273E-5,1.2539958132448248,0.5000
4.869001865386963,7.5793E-5,-0.6853030058469084,0.5000
4.923002243041992,7.4077E-5,-2.9338557704124337,0.5000
4.982002258300781,7.3977E-5,-3.0648908916194437,0.5000
5.039001941680908,7.3507E-5,-3.6807483341025673,0.5000
5.096002578735352,7.3779E-5,-3.3243297535435685,0.5000
5.149002552032471,7.3758E-5,-3.3518543748273752,0.5000
5.209002494812012,7.3924E-5,-3.134336454983229,0.5000
5.266002178192139,7.4684E-5,-2.138473347404863,0.5000
5.328002452850342,7.4631E-5,-2.207918910768648,0.5000
5.384002685546875,7.4656E-5,-2.1751601304668955,0.5000
5.441002368927002,7.5632E-5,-0.8962710764281604,0.5000
5.493002891540527,8.1001E-5,6.138953479004396,0.5000
5.547002792358398,7.662E-5,0.3983490566262594,0.5000
5.599002838134766,7.6969E-5,0.8556562906058477,0.5000
5.655002593994141,7.6602E-5,0.374761972090015,0.5000
5.715002536773682,7.9251E-5,3.8458579258562784,0.5000
5.780002593994141,7.8023E-5,2.2367496883101206,0.5000
5.83200216293335,7.9546E-5,4.232403906227134,0.5000
5.886002540588379,7.7486E-5,1.5331032909321962,0.5000
5.936002254486084,7.6758E-5,0.5791706594210906,0.5000
5.992002487182617,7.784E-5,1.9969603741746784,0.5000
6.056002616882324,8.2081E-5,7.55412134725537,0.5000
6.127002716064453,7.7975E-5,2.1738539742092295,0.5000
6.181002616882324,7.8048E-5,2.2695084686118734,0.5000
6.234002590179443,7.7255E-5,1.2304087287085805,0.5000
6.295002460479736,8.02E-5,5.089366353090647,0.5000
6.355002403259277,7.939E-5,4.0279952188960575,0.5000
6.4130024909973145,7.8864E-5,3.338754676301587,0.5000
6.476002216339111,7.6441E-5,0.16379390150876302,0.5000
6.527002334594727,7.6876E-5,0.7337928651643454,0.5000
6.583002090454102,8.1852E-5,7.254048631534368,0.5000
6.643002510070801,7.8204E-5,2.4739266899302312,0.5000
6.695002555847168,7.7427E-5,1.4557921880605686,0.5000
6.754002571105957,7.4506E-5,-2.371712812277411,0.5000
6.812002182006836,7.4124E-5,-2.8722662125692087,0.5000
6.864002704620361,7.5167E-5,-1.5055786696483895,0.5000
6.915002346038818,7.5303E-5,-1.32736937936889,0.5000
6.969002723693848,7.5385E-5,-1.2199213426981241,0.5000
7.029003143310547,7.5286E-5,-1.3496503076474686,0.5000
7.079002857208252,7.5045E-5,-1.6654445683968726,0.5000
7.140002727508545,7.5976E-5,-0.44551369171146604,0.5000
7.201003074645996,8.0918E-5,6.030189752088682,0.5000
7.264002799987793,7.4459E-5,-2.433302370120636,0.5000
7.314002513885498,7.3143E-5,-4.15771464985812,0.5000
7.371002674102783,7.3361E-5,-3.872057322907855,0.5000
7.437002658843994,7.3963E-5,-3.0832342831504604,0.5000
7.496002674102783,7.3464E-5,-3.7370941989405644,0.5000
7.558002471923828,7.3813E-5,-3.279786964960976,0.5000
7.628002166748047,7.5444E-5,-1.1426197738137789,0.5000
7.679002285003662,7.6541E-5,0.29482902271577344,0.5000
7.737002372741699,7.743E-5,1.4597201908208486,0.5000
7.802002429962158,7.9246E-5,3.8392985426061017,0.5000
7.855002403259277,7.3771E-5,-3.334817139554025,0.5000
7.9120025634765625,7.3517E-5,-3.6676391015894967,0.5000
7.97100305557251,7.3801E-5,-3.295508509989378,0.5000
8.040002822875977,7.3721E-5,-3.4003347001575297,0.5000
8.094002723693848,7.3852E-5,-3.228675259140925,0.5000
8.149003982543945,7.3836E-5,-3.249640497174555,0.5000
8.201004028320312,7.3216E-5,-4.062060155455476,0.5000
8.262002944946289,7.3276E-5,-3.983433362338901,0.5000
8.314002990722656,7.4885E-5,-1.8750969487331761,0.5000
8.37600326538086,7.609E-5,-0.29613517897343933,0.5000
8.43000316619873,7.6473E-5,0.20572437757602374,0.5000
8.481002807617188,7.4709E-5,-2.1057145671031106,0.5000
8.537003517150879,7.4144E-5,-2.8460572815303498,0.5000
8.59200382232666,7.6763E-5,0.5857205086839847,0.5000
8.647003173828125,7.7164E-5,1.1111671497696922,0.5000
8.697004318237305,7.4759E-5,-2.0401970064996053,0.5000
8.758004188537598,7.4836E-5,-1.9392988190917333,0.5000
8.827004432678223,7.446E-5,-2.4319962138629707,0.5000
8.877004623413086,8.0451E-5,5.418260312365839,0.5000
8.934004783630371,8.0327E-5,5.255782101102024,0.5000
8.988003730773926,7.7688E-5,1.7977858458615488,0.5000
9.043004989624023,7.8531E-5,2.902403146368347,0.5000
9.10700511932373,7.9525E-5,4.204888818930609,0.5000
9.164005279541016,7.9143E-5,3.7043354186388116,0.5000
9.215004920959473,7.8803E-5,3.258821726927345,0.5000
9.26800537109375,7.8805E-5,3.26144357342996,0.5000
9.323005676269531,7.4488E-5,-2.395299896813656,0.5000
9.38100528717041,7.6059E-5,-0.3367594987830342,0.5000
9.431005477905273,7.86E-5,2.9928234817530446,0.5000
9.488004684448242,8.1269E-5,6.490118832570885,0.5000
9.541004180908203,8.1475E-5,6.760054614492747,0.5000
9.597004890441895,7.8339E-5,2.6508202899647824,0.5000
9.665003776550293,8.0475E-5,5.4497129364099255,0.5000
9.728004455566406,8.0755E-5,5.816609368992099,0.5000
9.785004615783691,7.9564E-5,4.255990990763378,0.5000
9.844003677368164,7.9189E-5,3.764609286237089,0.5000
9.913004875183105,7.8404E-5,2.735996932344252,0.5000
9.999004364013672,7.7162E-5,1.1085548372543603,0.5000
10.067004203796387,8.2347E-5,7.902674388306527,0.5000
10.12700366973877,8.0048E-5,4.890191824777517,0.5000
10.178003311157227,7.7536E-5,1.5986208515357012,0.5000
10.230003356933594,7.7685E-5,1.7938578431012688,0.5000
10.288003921508789,7.8135E-5,2.383515888532816,0.5000
10.355003356933594,8.0163E-5,5.040886027760492,0.5000
10.415002822875977,7.9617E-5,4.325436554127163,0.5000
10.480002403259277,7.9445E-5,4.100062628762457,0.5000
10.53000259399414,7.5745E-5,-0.7481987199477995,0.5000
10.585002899169922,7.5621E-5,-0.9106864651988965,0.5000
10.651002883911133,8.058E-5,5.58729790687983,0.5000
10.70400333404541,7.9958E-5,4.772265936083577,0.5000
10.755003929138184,8.0333E-5,5.263638106622584,0.5000
10.80700397491455,8.0011E-5,4.841711499447363,0.5000
10.857004165649414,7.8811E-5,3.26929957895052,0.5000
10.912003517150879,7.6137E-5,-0.23454562113021415,0.5000
10.96600341796875,7.6876E-5,0.7337928651643454,0.5000
11.020004272460938,8.036E-5,5.2990187334269505,0.5000
11.08100414276123,8.0709E-5,5.756325967406539,0.5000
11.162004470825195,8.4134E-5,10.2442502667848,0.5000
11.24300479888916,7.8844E-5,3.3125457452627285,0.5000
11.296004295349121,7.7437E-5,1.468891886586357,0.5000
11.35800552368164,7.8002E-5,2.2092346010135966,0.5000
11.410005569458008,7.9079E-5,3.62047446650429,0.5000
11.461005210876465,7.7766E-5,1.8999997235143686,0.5000
11.520005226135254,7.7361E-5,1.3693093894234332,0.5000
11.573005676269531,7.3389E-5,-3.835370539845822,0.5000
11.634005546569824,7.7449E-5,1.4846229656020413,0.5000
11.687005996704102,7.7503E-5,1.5553746852234924,0.5000
11.78000545501709,7.9336E-5,3.9572339652873247,0.5000
11.840005874633789,7.6181E-5,-0.17689360003455115,0.5000
11.89400577545166,7.2625E-5,-4.836467806442134,0.5000
11.945006370544434,6.3959E-5,-16.191885222996625,0.5000
12.004006385803223,6.6572E-5,-12.767963438302852,0.5000
12.063005447387695,6.7179E-5,-11.972590549282563,0.5000
12.116005897521973,7.4566E-5,-2.2930955531481176,0.5000
12.16800594329834,7.5169E-5,-1.5029568231457755,0.5000
12.228006362915039,7.6703E-5,0.5071032495546913,0.5000
12.282007217407227,7.7935E-5,2.121445646118795,0.5000
12.338006973266602,7.7628E-5,1.7191685867322555,0.5000
12.422006607055664,7.6029E-5,-0.37606812834768083,0.5000
12.474005699157715,7.9163E-5,3.7305443496776705,0.5000
12.527006149291992,7.678E-5,0.6080014369625633,0.5000
12.584006309509277,8.0245E-5,5.148334064431258,0.5000
12.644006729125977,8.106E-5,6.216264581876024,0.5000
12.70500659942627,7.6446E-5,0.1703437507716571,0.5000
12.761007308959961,8.0473E-5,5.447091089907311,0.5000
12.817008018493652,8.2505E-5,8.109704922140217,0.5000
12.871007919311523,8.172E-5,7.0810830342600966,0.5000
12.928008079528809,8.1418E-5,6.685365358123733,0.5000
13.001008033752441,7.4994E-5,-1.7322682852580435,0.5000
13.053008079528809,7.2978E-5,-4.373916879457318,0.5000
13.104008674621582,7.5332E-5,-1.2893764400491916,0.5000
13.155008316040039,7.6464E-5,0.19393083530790156,0.5000
13.22200870513916,7.7399E-5,1.419105404998536,0.5000
13.278008460998535,7.3607E-5,-3.549713212895557,0.5000
13.339008331298828,7.7139E-5,1.0784083694679396,0.5000
13.403008460998535,7.6144E-5,-0.225373925364706,0.5000
13.456007957458496,7.6526E-5,0.275169940939809,0.5000
13.518009185791016,7.6691E-5,0.49138170452628904,0.5000
13.57400894165039,7.6927E-5,0.8006165820255164,0.5000
13.623008728027344,7.9047E-5,3.5785439904370295,0.5000
13.675007820129395,8.0517E-5,5.504743111002974,0.5000
13.728008270263672,8.0635E-5,5.6593653167462294,0.5000
13.802008628845215,7.8079E-5,2.3101327884214684,0.5000
13.8590087890625,8.0013E-5,4.844333345949976,0.5000
13.926008224487305,8.1878E-5,7.2881231020810695,0.5000
13.981009483337402,8.2774E-5,8.462185965951653,0.5000
14.038009643554688,8.1469E-5,6.752189074984906,0.5000
14.095008850097656,8.1822E-5,7.214740001969721,0.5000
14.165008544921875,8.2785E-5,8.476601354722389,0.5000
14.228009223937988,8.3182E-5,8.996804302802868,0.5000
14.279008865356445,8.2719E-5,8.390118556085254,0.5000
14.333009719848633,8.1573E-5,6.888467889197143,0.5000
14.38400936126709,8.1048E-5,6.200533502860339,0.5000
14.447009086608887,8.619E-5,12.938307189074507,0.5000
14.503008842468262,8.6369E-5,13.172862344192005,0.5000
14.570009231567383,8.5849E-5,12.491487341105376,0.5000
14.640009880065918,8.8307E-5,15.712306594725742,0.5000
14.703009605407715,8.7974E-5,15.275955064792502,0.5000
14.756010055541992,8.7195E-5,14.255208250407506,0.5000
14.822010040283203,8.6066E-5,12.775828977810693,0.5000
14.874011039733887,8.7723E-5,14.947061105517308,0.5000
14.927011489868164,8.7799E-5,15.046653136667516,0.5000
14.980010986328125,8.7636E-5,14.833063219583648,0.5000
15.030011177062988,8.504E-5,11.431422363168453,0.5000
15.081010818481445,8.4845E-5,11.175901970017327,0.5000
15.142010688781738,8.4185E-5,10.31107398364597,0.5000
15.1950101852417,8.4698E-5,10.98327729096709,0.5000
15.249011039733887,8.4934E-5,11.2925217024536,0.5000
15.302010536193848,8.4916E-5,11.268934617917356,0.5000
15.365010261535645,8.2728E-5,8.401912098353376,0.5000
15.416010856628418,8.2777E-5,8.466113968711934,0.5000
15.474010467529297,8.674E-5,13.659000355713067,0.5000
15.52401065826416,8.7308E-5,14.403271072900587,0.5000
15.585010528564453,8.3562E-5,9.494735856592051,0.5000
15.646010398864746,8.4722E-5,11.014729915011177,0.5000
15.699009895324707,8.3622E-5,9.573353115721345,0.5000
15.757010459899902,8.6613E-5,13.492584607701689,0.5000
15.811010360717773,8.5933E-5,12.601557224278755,0.5000
15.865010261535645,8.4417E-5,10.615074702127252,0.5000
15.918009757995605,8.2115E-5,7.598673669825246,0.5000
15.969010353088379,8.2023E-5,7.478116400641409,0.5000
16.021011352539062,8.3271E-5,9.113424035239143,0.5000
16.077011108398438,8.8489E-5,15.950789752603518,0.5000
16.133012771606445,8.8498E-5,15.96258329487164,0.5000
16.185012817382812,8.6503E-5,13.348449787968889,0.5000
16.238012313842773,8.5816E-5,12.448241174793168,0.5000
16.29401206970215,8.5776E-5,12.395832846702733,0.5000
16.361011505126953,8.5435E-5,11.949003464746319,0.5000
16.428010940551758,8.4915E-5,11.26762846165969,0.5000
16.484010696411133,8.5664E-5,12.24907618046732,0.5000
16.56300926208496,8.3286E-5,9.133083117015108,0.5000
16.615009307861328,8.4747E-5,11.047488695312929,0.5000
16.67000961303711,8.6706E-5,13.614448033143189,0.5000
16.72701072692871,8.5644E-5,12.222867249428461,0.5000
16.783010482788086,8.5304E-5,11.777344023729713,0.5000
16.842010498046875,8.5781E-5,12.402382695965626,0.5000
16.895009994506836,8.5937E-5,12.606791383296704,0.5000
16.961009979248047,8.5553E-5,12.103625670489574,0.5000
17.032011032104492,8.557E-5,12.125897064780869,0.5000
17.099008560180664,8.519E-5,11.627965510991686,0.5000
17.158010482788086,8.5879E-5,12.530795970670022,0.5000
17.211009979248047,9.0645E-5,18.775881796100236,0.5000
17.270009994506836,8.5294E-5,11.764244325203926,0.5000
17.33500862121582,8.5615E-5,12.184864776121481,0.5000
17.392009735107422,8.5692E-5,12.285762963529352,0.5000
17.44900894165039,8.4842E-5,11.171973967257046,0.5000
17.50800895690918,8.5437E-5,11.951625311248932,0.5000
17.56100845336914,8.5394E-5,11.895279446410935,0.5000
17.6140079498291,8.5864E-5,12.51113688889406,0.5000
17.675006866455078,9.1431E-5,19.805809840238023,0.5000
17.73000717163086,9.1185E-5,19.483465730225724,0.5000
17.833005905151367,8.979E-5,17.655542950565035,0.5000
17.88800621032715,8.6126E-5,12.854446236939987,0.5000
17.95200538635254,8.7126E-5,14.164787915022808,0.5000
18.024005889892578,8.5878E-5,12.529480280425076,0.5000
18.07500648498535,8.4133E-5,10.24293457653985,0.5000
18.13400650024414,8.0551E-5,5.5492954335728495,0.5000
18.1870059967041,8.3918E-5,9.961214786337148,0.5000
18.24400520324707,8.8595E-5,16.089680879331087,0.5000
18.29700469970703,8.8044E-5,15.367681556434864,0.5000
18.36200523376465,8.7836E-5,15.095133461997671,0.5000
18.421003341674805,8.2563E-5,8.185700334766896,0.5000
18.475004196166992,8.2545E-5,8.162113250230652,0.5000
18.526004791259766,8.2365E-5,7.926251938855488,0.5000
18.583005905151367,8.2443E-5,8.028465816508309,0.5000
18.644004821777344,8.0805E-5,5.882126929595604,0.5000
18.697004318237305,7.9105E-5,3.6545394030637084,0.5000
18.754005432128906,7.9652E-5,4.371304566941986,0.5000
18.807004928588867,8.2014E-5,7.466322858373287,0.5000
18.863004684448242,8.3089E-5,8.874940877361366,0.5000
18.921003341674805,8.2829E-5,8.534253375818052,0.5000
18.984004974365234,7.856E-5,2.9404056196753277,0.5000
19.035003662109375,7.7804E-5,1.9497862051021897,0.5000
19.086002349853516,7.7167E-5,1.1151046865172545,0.5000
19.14600372314453,7.7455E-5,1.4924789711226012,0.5000
19.20500373840332,7.6502E-5,0.24372685088300453,0.5000
19.2600040435791,7.6489E-5,0.22668961560965414,0.5000
19.315004348754883,7.9202E-5,3.781646521510439,0.5000
19.381004333496094,8.3672E-5,9.63887067632485,0.5000
19.452003479003906,8.2382E-5,7.948532867134067,0.5000
19.511003494262695,8.3817E-5,9.828873508872471,0.5000
19.570003509521484,8.1884E-5,7.295979107601629,0.5000
19.636003494262695,8.1022E-5,6.166468566300921,0.5000
19.70100212097168,8.2559E-5,8.180466175748949,0.5000
19.752002716064453,8.2146E-5,7.639288455647557,0.5000
19.81900405883789,7.9503E-5,4.176058041389137,0.5000
19.87800407409668,7.7891E-5,2.063793625023132,0.5000
19.941003799438477,7.52E-5,-1.4623420373234628,0.5000
20.005002975463867,6.7368E-5,-11.724935695639278,0.5000
20.058002471923828,6.5447E-5,-14.242099017894436,0.5000
20.112001419067383,6.8947E-5,-9.655898377610917,0.5000
20.163002014160156,7.0259E-5,-7.936739324865945,0.5000
20.242002487182617,6.7702E-5,-11.287278009448372,0.5000
20.294004440307617,6.5834E-5,-13.734995768339745,0.5000
20.353004455566406,6.6138E-5,-13.336646711713485,0.5000
20.408004760742188,6.6162E-5,-13.30520362165668,0.5000
20.472003936767578,6.7841E-5,-11.105140716408593,0.5000
20.52300453186035,6.842E-5,-10.346454610450337,0.5000
20.578004837036133,6.6097E-5,-13.390370730048867,0.5000
20.64000701904297,6.6552E-5,-12.79417236934171,0.5000
20.692007064819336,6.5744E-5,-13.852921657033685,0.5000
20.7760066986084,6.5301E-5,-14.433408006699725,0.5000
20.82700538635254,6.0257E-5,-21.042768418209494,0.5000
20.879005432128906,5.1523E-5,-32.487290479903734,0.5000
20.935007095336914,5.681E-5,-25.559513961141946,0.5000
20.99100685119629,5.7973E-5,-24.0355871329689,0.5000
21.059005737304688,5.4326E-5,-28.814402918315373,0.5000
21.12100601196289,5.5696E-5,-27.019234151962795,0.5000
21.18700408935547,5.2714E-5,-30.926672101675017,0.5000
21.241004943847656,5.2202E-5,-31.597569252738474,0.5000
21.295005798339844,5.3079E-5,-30.4483996296618,0.5000
21.355005264282227,5.0648E-5,-33.633838256477794,0.5000
21.406005859375,5.3325E-5,-30.1260555196495,0.5000
21.483007431030273,5.4379E-5,-28.744952587957943,0.5000
21.539005279541016,5.697E-5,-25.349861580805644,0.5000
21.59500503540039,5.8125E-5,-23.83641737164941,0.5000
21.651004791259766,5.807E-5,-23.90848478151581,0.5000
21.703004837036133,5.9345E-5,-22.237801287107352,0.5000
21.76800537109375,5.8648E-5,-23.151109598808862,0.5000
21.831005096435547,5.8654E-5,-23.14324405930102,0.5000
21.897005081176758,5.7008E-5,-25.30006556523054,0.5000
21.949005126953125,5.7741E-5,-24.33958785145018,0.5000
22.001005172729492,5.8364E-5,-23.52324495740262,0.5000
22.052005767822266,5.5806E-5,-26.875099332229997,0.5000
22.107006072998047,5.7925E-5,-24.09848284706979,0.5000
22.159006118774414,6.4139E-5,-15.956023911621465,0.5000
22.2130069732666,6.7603E-5,-11.416997440410434,0.5000
22.26700782775879,6.6544E-5,-12.804650221364883,0.5000
22.327007293701172,6.7163E-5,-11.993555787316193,0.5000
22.379009246826172,6.5375E-5,-14.336437822052131,0.5000
22.443010330200195,6.7052E-5,-12.138996763306658,0.5000
22.49901008605957,6.7815E-5,-11.13920565296801,0.5000
22.553009033203125,6.7937E-5,-10.97934928820681,0.5000
22.607009887695312,6.9198E-5,-9.327004418335726,0.5000
22.65700912475586,6.9376E-5,-9.093764953463177,0.5000
22.721010208129883,6.7907E-5,-11.018657917771456,0.5000
22.77100944519043,6.756E-5,-11.473343305248433,0.5000
22.840009689331055,6.8891E-5,-9.729281477722266,0.5000
22.891010284423828,6.6939E-5,-12.287069119787018,0.5000
22.950010299682617,7.0109E-5,-8.133282472689178,0.5000
23.016010284423828,6.9511E-5,-8.916871353428627,0.5000
23.069011688232422,6.944E-5,-9.009904001328657,0.5000
23.14801025390625,6.9366E-5,-9.106874185976247,0.5000
23.201011657714844,6.5353E-5,-14.365268599593604,0.5000
23.260011672973633,7.172E-5,-6.02232421258084,0.5000
23.318012237548828,7.0784E-5,-7.24880493852914,0.5000
23.377012252807617,7.2278E-5,-5.291153193919109,0.5000
23.43401336669922,7.1782E-5,-5.9410851069489325,0.5000
23.486011505126953,6.9176E-5,-9.3558351958772,0.5000
23.54001235961914,7.2497E-5,-5.004189710711177,0.5000
23.60601234436035,7.2431E-5,-5.090672509348313,0.5000
23.668014526367188,7.1971E-5,-5.693430253305648,0.5000
23.723012924194336,6.728E-5,-11.840239737830604,0.5000
23.82201385498047,6.6927E-5,-12.30279066481542,0.5000
23.873014450073242,7.42E-5,-2.7726837154062847,0.5000
23.93001365661621,7.4649E-5,-2.184341360219686,0.5000
23.996013641357422,6.9852E-5,-8.470041971472213,0.5000
24.049015045166016,7.2863E-5,-4.524611082440293,0.5000
24.101015090942383,7.3607E-5,-3.549713212895557,0.5000
24.152015686035156,7.3158E-5,-4.138055568082156,0.5000
24.20301628112793,7.2553E-5,-4.930816144587112,0.5000
24.270015716552734,7.1291E-5,-6.584467170715862,0.5000
24.34601593017578,6.7224E-5,-11.913622837941952,0.5000
24.414016723632812,7.4988E-5,-1.7401338247658857,0.5000
24.465017318725586,7.6714E-5,0.5215186383254276,0.5000
24.524017333984375,7.7313E-5,1.306413675322542,0.5000
24.591018676757812,7.0401E-5,-7.7506644950786034,0.5000
24.64301872253418,7.4337E-5,-2.5931682688691193,0.5000
24.697019577026367,7.2724E-5,-4.706748375480072,0.5000
24.764019012451172,7.0541E-5,-7.567221045781158,0.5000
24.83201789855957,7.0539E-5,-7.569842892283772,0.5000
24.897018432617188,7.1077E-5,-6.8648808046609,0.5000
24.949018478393555,7.2903E-5,-4.472193220362575,0.5000
25.00402069091797,7.5411E-5,-1.1858564061387056,0.5000
25.058019638061523,7.3325E-5,-3.9192314919803435,0.5000
25.113019943237305,7.2801E-5,-4.605850188072201,0.5000
25.172019958496094,7.2352E-5,-5.194192543258799,0.5000
25.236021041870117,7.2275E-5,-5.29509073066667,0.5000
25.292020797729492,7.4516E-5,-2.3586131137516233,0.5000
25.345022201538086,7.2108E-5,-5.513914806768483,0.5000
25.39902114868164,6.8903E-5,-9.713559932693864,0.5000
25.455020904541016,7.2391E-5,-5.143090371426029,0.5000
25.52402114868164,7.3169E-5,-4.123640179311419,0.5000
25.57402229309082,7.6753E-5,0.5726208101581965,0.5000
25.634021759033203,6.8994E-5,-9.594318353754975,0.5000
25.689022064208984,7.1234E-5,-6.659156427084875,0.5000
25.744022369384766,6.9413E-5,-9.045284628133023,0.5000
25.80802345275879,7.1034E-5,-6.921217135511615,0.5000
25.869022369384766,6.7045E-5,-12.148168459072165,0.5000
25.924022674560547,6.7004E-5,-12.201892477407549,0.5000
25.976022720336914,6.6404E-5,-12.988103204649612,0.5000
26.033023834228516,7.0698E-5,-7.361496668205135,0.5000
26.087024688720703,6.8502E-5,-10.239006573779571,0.5000
26.137025833129883,7.0078E-5,-8.173906792498773,0.5000
26.189023971557617,7.025E-5,-7.948532867134067,0.5000
26.24202537536621,7.1838E-5,-5.867702006837585,0.5000
26.294025421142578,7.169E-5,-6.061632842145487,0.5000
26.348026275634766,7.1707E-5,-6.039361447854191,0.5000
26.402027130126953,7.1354E-5,-6.501912374839007,0.5000
26.455028533935547,7.1494E-5,-6.3184593915542795,0.5000
26.50702667236328,7.1251E-5,-6.636875498806297,0.5000
26.56102752685547,7.2334E-5,-5.217779627795043,0.5000
26.630027770996094,7.5923E-5,-0.5149592550752513,0.5000
26.690027236938477,7.7952E-5,2.143717040410091,0.5000
26.764028549194336,7.5463E-5,-1.1177169990325864,0.5000
26.821027755737305,7.251E-5,-4.987152475437827,0.5000
26.89002799987793,7.0155E-5,-8.073008605090902,0.5000
26.94702911376953,7.1094E-5,-6.842599876382321,0.5000
27.0090274810791,7.087E-5,-7.136113208853147,0.5000
27.064027786254883,7.1098E-5,-6.837356183377093,0.5000
27.117029190063477,7.0038E-5,-8.22632465457649,0.5000
27.174028396606445,6.975E-5,-8.603698939181838,0.5000
27.235029220581055,7.1926E-5,-5.752397964646259,0.5000
27.300029754638672,8.0799E-5,5.874261390087762,0.5000
27.358030319213867,7.5252E-5,-1.3942026302173436,0.5000
27.424030303955078,7.3999E-5,-3.0360601140779715,0.5000
27.48603057861328,7.4303E-5,-2.637711057451712,0.5000
27.553030014038086,7.4421E-5,-2.4830983856957394,0.5000
27.603031158447266,7.3672E-5,-3.464536570516087,0.5000
27.66802978515625,7.2637E-5,-4.820746261413732,0.5000
27.731029510498047,7.2903E-5,-4.472193220362575,0.5000
27.796030044555664,7.2094E-5,-5.532258198299498,0.5000
27.88302993774414,7.5574E-5,-0.9722760230421219,0.5000
27.93402862548828,7.3421E-5,-3.7934400637785615,0.5000
27.992029190063477,7.2741E-5,-4.684467447201493,0.5000
28.044029235839844,7.3418E-5,-3.797368066538841,0.5000
28.09602928161621,7.3798E-5,-3.299436512749658,0.5000
28.148029327392578,7.3181E-5,-4.107918634283017,0.5000
28.21002960205078,7.2912E-5,-4.460399678094453,0.5000
28.2750301361084,7.2126E-5,-5.490327722232238,0.5000
28.34202766418457,7.249E-5,-5.013361406476685,0.5000
28.394027709960938,7.9721E-5,4.4617153683394015,0.5000
28.450029373168945,7.1862E-5,-5.836258916780781,0.5000
28.523027420043945,7.2083E-5,-5.546673587070235,0.5000
28.57402801513672,7.1632E-5,-6.137637788759448,0.5000
28.635026931762695,7.449E-5,-2.3926780503110416,0.5000
28.685028076171875,7.1023E-5,-6.935632524282351,0.5000
28.737028121948242,7.0567E-5,-7.533146575234458,0.5000
28.80002784729004,7.1262E-5,-6.6224601100355605,0.5000
28.863027572631836,6.9705E-5,-8.662666650522448,0.5000
28.922027587890625,7.2081E-5,-5.5492954335728495,0.5000
28.9730281829834,8.1587E-5,6.90681128072816,0.5000
29.03302764892578,7.1942E-5,-5.731432726612629,0.5000
29.089027404785156,6.7823E-5,-11.128727800944837,0.5000
29.1600284576416,6.4182E-5,-15.899678046783466,0.5000
29.21302604675293,6.5558E-5,-14.09664850791669,0.5000
29.264026641845703,6.4952E-5,-14.890715240679311,0.5000
29.3220272064209,6.4561E-5,-15.40306218323923,0.5000
29.380027770996094,6.5221E-5,-14.538234196867874,0.5000
29.43402862548828,6.3323E-5,-17.025260585323895,0.5000
29.488027572631836,6.7505E-5,-11.54541071511483,0.5000
29.543027877807617,7.8321E-5,2.627233205428538,0.5000
29.60002899169922,7.5966E-5,-0.4586133902372542,0.5000
29.651029586791992,6.9114E-5,-9.437074301509107,0.5000
29.71603012084961,6.3857E-5,-16.325542190706248,0.5000
29.791030883789062,6.5247E-5,-14.504169260308458,0.5000
29.84103012084961,6.4407E-5,-15.604849024067693,0.5000
29.902029037475586,6.3247E-5,-17.1248526164741,0.5000
29.95302963256836,6.6347E-5,-13.062792461018624,0.5000
30.00602912902832,6.4438E-5,-15.564234238245382,0.5000
30.066028594970703,7.0165E-5,-8.059908906565113,0.5000
30.127029418945312,7.7356E-5,1.362759540160539,0.5000
30.185029983520508,7.7186E-5,1.139997927311165,0.5000
30.24502944946289,6.8357E-5,-10.42899987233991,0.5000
30.296030044555664,6.8087E-5,-10.782796606396294,0.5000
30.351030349731445,6.5762E-5,-13.829344106484722,0.5000
30.41303062438965,6.4678E-5,-15.249746133753641,0.5000
30.463031768798828,6.4643E-5,-15.295614146568465,0.5000
30.519031524658203,6.4063E-5,-16.05560640878439,0.5000
30.573030471801758,6.3925E-5,-16.236437545566503,0.5000
30.634031295776367,6.4043E-5,-16.081815339823248,0.5000
30.692031860351562,7.1095E-5,-6.841293720124655,0.5000
30.75503158569336,7.5664E-5,-0.8543406003608995,0.5000
30.806032180786133,7.5459E-5,-1.1229606920378146,0.5000
30.868030548095703,6.442E-5,-15.587821322781625,0.5000
30.92003059387207,6.9776E-5,-8.569634002622418,0.5000
30.989030838012695,6.8358E-5,-10.427693716082244,0.5000
31.046031951904297,7.042E-5,-7.725771254284693,0.5000
31.100032806396484,6.9479E-5,-8.958801829495888,0.5000
31.170032501220703,6.4906E-5,-14.950989108277588,0.5000
31.22903060913086,6.6658E-5,-12.655271708626856,0.5000
31.280031204223633,6.8801E-5,-9.847216900403488,0.5000
31.332029342651367,6.8051E-5,-10.829970775468784,0.5000
31.39202880859375,6.5816E-5,-13.758582852875989,0.5000
31.446029663085938,6.2743E-5,-17.785262381527097,0.5000
31.505029678344727,5.9835E-5,-21.59573014659173,0.5000
31.559030532836914,6.2526E-5,-18.069604018232415,0.5000
31.60902976989746,6.1094E-5,-19.946016657210542,0.5000
31.666030883789062,6.2364E-5,-18.281878245071333,0.5000
31.72102928161621,6.3115E-5,-17.29780867976109,0.5000
31.7750301361084,6.2855E-5,-17.638505715291686,0.5000
31.838031768798828,6.7909E-5,-11.016036071268843,0.5000
31.890029907226562,7.5E-5,-1.7244027457502014,0.5000
31.952030181884766,7.8202E-5,2.471304843427617,0.5000
32.004032135009766,7.5029E-5,-1.6864098064305026,0.5000
32.055030822753906,7.2911E-5,-4.461705834352119,0.5000
32.10602951049805,7.5777E-5,-0.7062682438805388,0.5000
32.163028717041016,7.5168E-5,-1.5042725133907233,0.5000
32.216026306152344,7.5832E-5,-0.6342008340141395,0.5000
32.27002716064453,7.3836E-5,-3.249640497174555,0.5000
32.33403015136719,7.3547E-5,-3.6283304720248504,0.5000
32.39002990722656,7.2275E-5,-5.29509073066667,0.5000
32.44302749633789,7.5811E-5,-0.6617159213106639,0.5000
32.49502944946289,7.5796E-5,-0.6813750030866284,0.5000
32.547027587890625,7.6729E-5,0.5411681861141099,0.5000
32.59902572631836,7.7974E-5,2.1725478179515636,0.5000
32.65802764892578,7.4158E-5,-2.827713889999334,0.5000
32.73502731323242,7.6659E-5,0.4494512284590283,0.5000
32.79502487182617,7.5777E-5,-0.7062682438805388,0.5000
32.84902572631836,6.7662E-5,-11.33969587152609,0.5000
32.905025482177734,6.8036E-5,-10.849620323257465,0.5000
32.960025787353516,6.7611E-5,-11.40651958838726,0.5000
33.013023376464844,7.6156E-5,-0.2096523803363038,0.5000
33.08002471923828,7.6507E-5,0.2502767001458986,0.5000
33.13502502441406,7.3393E-5,-3.830126846840594,0.5000
33.18502426147461,6.7471E-5,-11.589963037684706,0.5000
33.24202346801758,6.7483E-5,-11.574241492656304,0.5000
33.292022705078125,6.8512E-5,-10.225897341266501,0.5000
33.360023498535156,6.8512E-5,-10.225897341266501,0.5000
33.41202163696289,6.6215E-5,-13.235758058292896,0.5000
33.464019775390625,6.6752E-5,-12.532102126927688,0.5000
33.52001953125,6.4676E-5,-15.252367980256256,0.5000
33.5820198059082,7.5302E-5,-1.3286850696138381,0.5000
33.644020080566406,8.0307E-5,5.229573170063166,0.5000
33.69902038574219,7.8971E-5,3.4789614932741055,0.5000
33.765018463134766,6.9323E-5,-9.163210516826963,0.5000
33.827022552490234,7.3454E-5,-3.7501938974663522,0.5000
33.88602066040039,7.5624E-5,-0.9067584624386166,0.5000
33.97002029418945,7.4467E-5,-2.42281498411018,0.5000
34.02201843261719,7.0792E-5,-7.238327086505966,0.5000
34.07401657104492,6.777E-5,-11.198173364308623,0.5000
34.1300163269043,7.4465E-5,-2.425436830612794,0.5000
34.184017181396484,7.9138E-5,3.697785569375918,0.5000
34.23801803588867,8.135E-5,6.596260712983984,0.5000
34.290016174316406,7.7018E-5,0.9198581609644048,0.5000
34.343017578125,7.5509E-5,-1.0574431314343091,0.5000
34.39501953125,7.5356E-5,-1.2579238160051047,0.5000
34.45001983642578,7.6303E-5,-0.01703723527335038,0.5000
34.532020568847656,7.5522E-5,-1.040405896160959,0.5000
34.584022521972656,7.0453E-5,-7.6825250879724845,0.5000
34.644020080566406,6.8031E-5,-10.856179706507643,0.5000
34.702022552490234,7.7866E-5,2.031034844721379,0.5000
34.753021240234375,8.0935E-5,6.052470680367261,0.5000
34.80302047729492,8.1717E-5,7.077155031499817,0.5000
34.85601806640625,7.5939E-5,-0.49399401704162094,0.5000
34.907020568847656,7.1861E-5,-5.837565073038446,0.5000
34.960018157958984,6.9666E-5,-8.713768822355217,0.5000
35.021018981933594,7.102E-5,-6.9395700610299125,0.5000
35.07802200317383,7.4891E-5,-1.867231409225334,0.5000
35.15802001953125,6.9162E-5,-9.374178587408215,0.5000
35.20802307128906,6.9718E-5,-8.645629415249099,0.5000
35.262020111083984,7.8668E-5,3.0819281268927945,0.5000
35.31502151489258,8.1208E-5,6.4101954171839255,0.5000
35.369022369384766,8.3018E-5,8.781908229461337,0.5000
35.433021545410156,7.7883E-5,2.0533062390126755,0.5000
35.50202178955078,7.9698E-5,4.4315784345402625,0.5000
35.55702209472656,8.173E-5,7.094192266773168,0.5000
35.61402130126953,7.6881E-5,0.7403427144272395,0.5000
35.672019958496094,7.3356E-5,-3.878607172170749,0.5000
35.75901794433594,7.1135E-5,-6.7888758580469375,0.5000
35.817020416259766,8.2628E-5,8.270876977146365,0.5000
35.87102127075195,8.4822E-5,11.145765036218187,0.5000
35.92902374267578,8.6063E-5,12.771900975050412,0.5000
36.003021240234375,7.4534E-5,-2.3350260292153786,0.5000
36.055023193359375,7.4146E-5,-2.843435435027736,0.5000
36.10602569580078,7.6211E-5,-0.1375849704699045,0.5000
36.17002487182617,7.7229E-5,1.196343792149162,0.5000
36.235023498535156,7.1077E-5,-6.8648808046609,0.5000
36.29202651977539,6.7327E-5,-11.778659713974662,0.5000
36.34502410888672,7.3958E-5,-3.0897841324133544,0.5000
36.42002487182617,8.0955E-5,6.078670077418837,0.5000
36.4890251159668,8.2206E-5,7.717915248764133,0.5000
36.546024322509766,7.3186E-5,-4.101368785020123,0.5000
36.60402297973633,7.6925E-5,0.7979947355229025,0.5000
36.658023834228516,8.1307E-5,6.539914848145988,0.5000
36.709022521972656,7.8017E-5,2.2288936827895607,0.5000
36.776023864746094,7.6159E-5,-0.20572437757602374,0.5000
36.8380241394043,7.2682E-5,-4.761778550073121,0.5000
36.9000244140625,8.1379E-5,6.634263186290966,0.5000
36.97602462768555,8.9213E-5,16.899469157122113,0.5000
37.0360221862793,8.9551E-5,17.342370536318246,0.5000
37.090023040771484,8.2506E-5,8.111011078397883,0.5000
37.15102005004883,8.2728E-5,8.401912098353376,0.5000
37.21002197265625,8.2775E-5,8.463492122209319,0.5000
37.26802444458008,8.0168E-5,5.047435877023386,0.5000
37.31902313232422,8.0864E-5,5.959438032467231,0.5000
37.38002014160156,8.0561E-5,5.56240466608592,0.5000
37.438018798828125,8.1774E-5,7.151844287868831,0.5000
37.49102020263672,9.1779E-5,20.261810917959945,0.5000
37.57001876831055,8.8725E-5,16.260024630102745,0.5000
37.624019622802734,8.0477E-5,5.45233478291254,0.5000
37.684017181396484,7.5605E-5,-0.9316517032325269,0.5000
37.740020751953125,7.5466E-5,-1.1137889962723062,0.5000
37.800018310546875,7.6007E-5,-0.40488937190187124,0.5000
37.85702133178711,7.7648E-5,1.745377517771114,0.5000
37.9210205078125,7.5612E-5,-0.9224800074670189,0.5000
37.980018615722656,7.9914E-5,4.714613914987914,0.5000
38.04201889038086,9.149E-5,19.88312094310965,0.5000
38.118019104003906,8.4511E-5,10.73824428382642,0.5000
38.22201919555664,8.0098E-5,4.955709385381023,0.5000
38.27601623535156,7.4195E-5,-2.779233564669179,0.5000
38.32801818847656,7.499E-5,-1.7375119782632718,0.5000
38.38002014160156,7.0203E-5,-8.01011289099001,0.5000
38.4320182800293,7.0114E-5,-8.126732623426285,0.5000
38.4840202331543,6.9715E-5,-8.649557418009378,0.5000
38.53801727294922,7.7594E-5,1.6746162641623805,0.5000
38.598018646240234,8.6499E-5,13.34320609496366,0.5000
38.64801788330078,8.4101E-5,10.20100410047259,0.5000
38.69901657104492,8.3521E-5,9.441011838256669,0.5000
38.75101852416992,7.5259E-5,-1.3850309344518352,0.5000
38.822017669677734,8.0953E-5,6.0760577649035055,0.5000
38.88401412963867,8.3055E-5,8.83038855479149,0.5000
38.93801498413086,8.1434E-5,6.706330596157365,0.5000
38.9940185546875,7.7996E-5,2.2013785954930363,0.5000
39.046016693115234,7.8132E-5,2.3795783517852533,0.5000
39.09901428222656,8.7483E-5,14.632582535012853,0.5000
39.15401840209961,8.6727E-5,13.641963120439716,0.5000
39.217018127441406,8.6302E-5,13.085073389297202,0.5000
39.27601623535156,8.222E-5,7.736258640295149,0.5000
39.343017578125,7.9749E-5,4.498402151401434,0.5000
39.394020080566406,8.3576E-5,9.513079248123066,0.5000
39.45301818847656,8.3289E-5,9.137011119775387,0.5000
39.51301574707031,8.2753E-5,8.434670878655128,0.5000
39.5670166015625,7.7877E-5,2.0454406995048333,0.5000
39.627017974853516,7.5791E-5,-0.6879248523495225,0.5000
39.6820182800293,8.5304E-5,11.777344023729713,0.5000
39.75102233886719,8.8897E-5,16.485408089454733,0.5000
39.821022033691406,8.1489E-5,6.778398006023764,0.5000
39.88201904296875,8.1577E-5,6.893711582202372,0.5000
39.935020446777344,8.6041E-5,12.74307019750894,0.5000
40.019020080566406,8.5727E-5,12.331621442356894,0.5000
40.07701873779297,8.1712E-5,7.070605182236924,0.5000
40.12801742553711,7.9366E-5,3.9965425948519715,0.5000
40.18801498413086,8.0665E-5,5.698673946310876,0.5000
40.245018005371094,8.7171E-5,14.223755626363419,0.5000
40.29701614379883,8.9689E-5,17.52319213911308,0.5000
40.35801315307617,8.6361E-5,13.162374958181546,0.5000
40.40901184082031,8.5641E-5,12.2189297126809,0.5000
40.46100997924805,8.2902E-5,8.629907870220697,0.5000
40.5470085144043,8.3913E-5,9.954664937074254,0.5000
40.597007751464844,8.1866E-5,7.272392023065384,0.5000
40.68000411987305,8.1088E-5,6.252951364938056,0.5000
40.73300552368164,7.844E-5,2.783171101416741,0.5000
40.79900360107422,8.2385E-5,7.952460869894347,0.5000
40.85600662231445,9.1846E-5,20.349599872854746,0.5000
40.9170036315918,9.0385E-5,18.435194294556922,0.5000
40.971004486083984,8.0406E-5,5.359292601025228,0.5000
41.02400588989258,8.0726E-5,5.778606895685118,0.5000
41.075008392333984,8.1694E-5,7.047018097700679,0.5000
41.142005920410156,8.2193E-5,7.700878013490782,0.5000
41.203006744384766,8.2141E-5,7.632738606384663,0.5000
41.25900650024414,7.6869E-5,0.7246211693988373,0.5000
41.31200408935547,7.4752E-5,-2.0493687022651135,0.5000
41.366004943847656,8.2726E-5,8.399290251850761,0.5000
41.42400360107422,8.7994E-5,15.302163995831359,0.5000
41.480003356933594,8.6507E-5,13.353693480974119,0.5000
41.54700469970703,8.6329E-5,13.120444482114287,0.5000
41.60200500488281,8.7757E-5,14.991613428087183,0.5000
41.66100311279297,8.723E-5,14.301066729235048,0.5000
41.7180061340332,8.689E-5,13.855553037523583,0.5000
41.77000427246094,8.5303E-5,11.776037867472047,0.5000
41.82300567626953,7.6246E-5,-0.09172649164236374,0.5000
41.87600326538086,7.8361E-5,2.679651067506255,0.5000
41.93100357055664,8.4674E-5,10.951834200910286,0.5000
41.9940071105957,8.5205E-5,11.64762459276765,0.5000
42.04700469970703,8.4806E-5,11.124799798184558,0.5000
42.12400817871094,8.0767E-5,5.832330914020501,0.5000
42.17900848388672,8.4727E-5,11.021279764274071,0.5000
42.23900604248047,8.3384E-5,9.261496391719504,0.5000
42.293006896972656,8.3383E-5,9.260180701474555,0.5000
42.346004486083984,8.2208E-5,7.720527561279465,0.5000
42.414005279541016,8.3576E-5,9.513079248123066,0.5000
42.46800231933594,8.3704E-5,9.680801152392112,0.5000
42.52500534057617,8.7881E-5,15.15410117333828,0.5000
42.577003479003906,8.3174E-5,8.986326450779694,0.5000
42.638004302978516,8.303E-5,8.797629774489739,0.5000
42.6920051574707,8.4541E-5,10.77756244737835,0.5000
42.74700927734375,8.6287E-5,13.06541430752124,0.5000
42.80100631713867,8.6712E-5,13.622313572651032,0.5000
42.85200881958008,8.4463E-5,10.675348569725529,0.5000
42.90400695800781,8.7674E-5,14.882859235158751,0.5000
43.0050048828125,8.8751E-5,16.294099100649444,0.5000
43.056007385253906,8.8637E-5,16.14472058791142,0.5000
43.10800552368164,9.0928E-5,19.14670623144269,0.5000
43.168006896972656,9.0323E-5,18.353955188925013,0.5000
43.238006591796875,8.5889E-5,12.543895669195813,0.5000
43.29600524902344,8.6171E-5,12.913413948280597,0.5000
43.34700393676758,8.5792E-5,12.416798084736364,0.5000
43.40300369262695,8.5837E-5,12.475756262089693,0.5000
43.47100067138672,8.5883E-5,12.53603966367525,0.5000
43.531002044677734,8.6897E-5,13.864724733289089,0.5000
43.586002349853516,8.6446E-5,13.273760531599876,0.5000
43.63700485229492,9.0121E-5,18.08926310000838,0.5000
43.69600296020508,9.21E-5,20.6824313688775,0.5000
43.75200271606445,8.9399E-5,17.14319600800512,0.5000
43.803001403808594,8.8373E-5,15.798789393362878,0.5000
43.8650016784668,8.9118E-5,16.77499341916528,0.5000
43.917999267578125,9.0019E-5,17.955606132298758,0.5000
43.979000091552734,8.9788E-5,17.652921104062422,0.5000
44.03300094604492,9.0078E-5,18.032917235170384,0.5000
44.08399963378906,8.8288E-5,15.687403819944548,0.5000
44.1870002746582,8.7463E-5,14.606373603973996,0.5000
44.25600051879883,8.741E-5,14.536928040610208,0.5000
44.31699752807617,8.5498E-5,12.031558260623173,0.5000
44.37300109863281,8.5854E-5,12.49803719036827,0.5000
44.4370002746582,8.202E-5,7.474188397881129,0.5000
44.49199676513672,8.0615E-5,5.633156385707371,0.5000
44.55099868774414,7.7289E-5,1.2749610512784553,0.5000
44.61000061035156,7.8145E-5,2.3966155870586037,0.5000
44.66299819946289,7.8691E-5,3.112065060691933,0.5000
44.7239990234375,8.152E-5,6.819012791846077,0.5000
44.80599594116211,8.3493E-5,9.404325055194636,0.5000
44.861000061035156,8.3417E-5,9.30473302404443,0.5000
44.92399978637695,8.4417E-5,10.615074702127252,0.5000
44.979000091552734,8.4736E-5,11.033073306542192,0.5000
45.047000885009766,8.4551E-5,10.790662145904136,0.5000
45.117000579833984,8.4731E-5,11.0265234572793,0.5000
45.17399978637695,8.0638E-5,5.66329331950651,0.5000
45.237998962402344,8.49E-5,11.247969379883726,0.5000
45.292999267578125,8.9582E-5,17.38298532214056,0.5000
45.36099624633789,9.047E-5,18.54657033398797,0.5000
45.413997650146484,8.2837E-5,8.544740761828509,0.5000
45.47800064086914,8.9391E-5,17.13270862199466,0.5000
45.534000396728516,9.0183E-5,18.170502205640286,0.5000
45.586997985839844,8.9694E-5,17.52974198837597,0.5000
45.64699935913086,8.7553E-5,14.724309026655217,0.5000
45.70399856567383,8.9174E-5,16.848366985289342,0.5000
45.76399612426758,8.7313E-5,14.40982092216348,0.5000
45.82899475097656,9.3055E-5,21.93380533561971,0.5000
45.87999725341797,9.2786E-5,21.581324291808272,0.5000
45.95099639892578,9.183E-5,20.328634634821118,0.5000
46.00999450683594,8.6205E-5,12.957966270850473,0.5000
46.06499481201172,8.82E-5,15.572099777753223,0.5000
46.11899185180664,8.6863E-5,13.820172410719215,0.5000
46.17099380493164,8.6376E-5,13.182034039957513,0.5000
46.24299240112305,8.5647E-5,12.22679525218874,0.5000
46.3019905090332,8.5994E-5,12.681480639665715,0.5000
46.3539924621582,8.8867E-5,16.446089925902804,0.5000
46.404991149902344,8.7996E-5,15.304785842333974,0.5000
46.45599365234375,8.8193E-5,15.562928081987714,0.5000
46.5159912109375,8.5642E-5,12.220245402925848,0.5000
46.57398986816406,8.6386E-5,13.1951337384833,0.5000
46.626991271972656,8.6377E-5,13.183340196215179,0.5000
46.68098831176758,8.6694E-5,13.598726488114787,0.5000
46.73699188232422,8.5419E-5,11.928038226712689,0.5000
46.78899002075195,8.6894E-5,13.860787196541526,0.5000
46.843990325927734,8.6333E-5,13.125688175119516,0.5000
46.89799499511719,9.004E-5,17.98312121959528,0.5000
46.956993103027344,8.8894E-5,16.48147055270717,0.5000
47.02199172973633,8.6861E-5,13.8175505642166,0.5000
47.07799530029297,8.1406E-5,6.66963427910805,0.5000
47.136993408203125,8.6276E-5,13.050998918750503,0.5000
47.2029914855957,8.6817E-5,13.759898543120938,0.5000
47.26399230957031,8.7359E-5,14.47010432374904,0.5000
47.32299041748047,8.2784E-5,8.47528566447744,0.5000
47.37899398803711,8.2807E-5,8.50542259827658,0.5000
47.43299102783203,8.9417E-5,17.166783092541362,0.5000
47.4999885559082,8.9134E-5,16.79595865719891,0.5000
47.55398941040039,8.9438E-5,17.194298179837887,0.5000
47.60599136352539,8.6982E-5,13.976100772720134,0.5000
47.66598892211914,8.7635E-5,14.831757063325984,0.5000
47.71799087524414,8.893E-5,16.52864472177966,0.5000
47.77098846435547,8.0072E-5,4.9216444488216045,0.5000
47.824989318847656,7.9508E-5,4.18260789065203,0.5000
47.88698959350586,7.838E-5,2.7045443083001652,0.5000
47.938987731933594,7.8695E-5,3.1172992197098788,0.5000
47.99098587036133,8.7305E-5,14.399343070140306,0.5000
48.044986724853516,8.4469E-5,10.683214109233372,0.5000
48.09798812866211,8.0401E-5,5.352742751762333,0.5000
48.16299057006836,8.1347E-5,6.592332710223705,0.5000
48.2139892578125,8.7862E-5,15.12919839855709,0.5000
48.26498794555664,8.8352E-5,15.77126477207907,0.5000
48.3289909362793,8.8874E-5,16.455271155655595,0.5000
48.39999008178711,8.9885E-5,17.78001868852187,0.5000
48.451988220214844,9.0563E-5,18.66843375942947,0.5000
48.52798843383789,8.8736E-5,16.27444001887348,0.5000
48.579986572265625,8.9974E-5,17.896638420958144,0.5000
48.63198471069336,9.4736E-5,24.13649008737041,0.5000
48.6829833984375,9.2514E-5,21.224905711249274,0.5000
48.74497985839844,9.3122E-5,22.021594290514514,0.5000
48.80598068237305,9.5316E-5,24.896482349586336,0.5000
48.85598373413086,9.5132E-5,24.655386879193227,0.5000
48.923980712890625,9.5254E-5,24.815243243954427,0.5000
48.979984283447266,9.4944E-5,24.409038181807606,0.5000
49.03598403930664,9.3518E-5,22.540491082337326,0.5000
49.096981048583984,9.3223E-5,22.15394510196647,0.5000
49.148983001708984,9.4832E-5,24.262281515572194,0.5000
49.20098114013672,9.5212E-5,24.760213069361377,0.5000
49.25197982788086,9.4148E-5,23.366010439144034,0.5000
49.303977966308594,9.4793E-5,24.211179343739424,0.5000
49.35997772216797,9.549E-5,25.124487655440937,0.5000
49.418975830078125,9.4262E-5,23.51538895188206,0.5000
49.473976135253906,9.2323E-5,20.97463854509066,0.5000
49.538978576660156,9.3726E-5,22.81303917677452,0.5000
49.60197830200195,9.2993E-5,21.8525662299878,0.5000
49.65298080444336,9.3844E-5,22.967661382517775,0.5000
49.70698165893555,9.5948E-5,25.724623552895657,0.5000
49.7669792175293,9.5276E-5,24.8440740214959,0.5000
49.81698226928711,9.3921E-5,23.068559569925647,0.5000
49.88298034667969,9.2872E-5,21.694006487496985,0.5000
49.936981201171875,9.3865E-5,22.9951764698143,0.5000
49.98798370361328,9.4401E-5,23.69752624492184,0.5000
50.056983947753906,9.4244E-5,23.491801867345817,0.5000
50.155982971191406,9.5302E-5,24.878138958055317,0.5000
50.208980560302734,9.0791E-5,18.967190784905526,0.5000
50.27998352050781,9.444E-5,23.74862841675461,0.5000
50.332984924316406,9.6328E-5,26.22255510668484,0.5000
50.3959846496582,9.4273E-5,23.529794806665517,0.5000
50.45098114013672,9.4007E-5,23.18125129960164,0.5000
50.50798034667969,9.5123E-5,24.643593336925104,0.5000
50.56897735595703,9.4361E-5,23.645108382844125,0.5000
50.6409797668457,9.1002E-5,19.24367641609028,0.5000
50.73597717285156,9.056E-5,18.664505756669193,0.5000
50.7919807434082,8.921E-5,16.895541154361833,0.5000
50.84497833251953,8.974E-5,17.590025389961532,0.5000
50.91897964477539,8.9946E-5,17.859951637896113,0.5000
50.975982666015625,8.7027E-5,14.035068484060748,0.5000
51.03398132324219,8.925E-5,16.947959016439547,0.5000
51.096981048583984,9.093E-5,19.149328077945306,0.5000
51.150978088378906,9.1625E-5,20.0600145431442,0.5000
51.20798110961914,9.2145E-5,20.741389546230828,0.5000
51.2659797668457,9.1422E-5,19.7940162979699,0.5000
51.323978424072266,9.113E-5,19.411398320359325,0.5000
51.3759765625,8.8553E-5,16.034650704738038,0.5000
51.42997741699219,8.7446E-5,14.584102209682698,0.5000
51.483978271484375,8.7735E-5,14.962792184532994,0.5000
51.5369758605957,8.9674E-5,17.503542591324393,0.5000
51.60297775268555,8.4557E-5,10.79852768541198,0.5000
51.6669807434082,8.605E-5,12.754863739777065,0.5000
51.717979431152344,8.5158E-5,11.586035034924427,0.5000
51.77097702026367,8.52E-5,11.641074743504756,0.5000
51.82197952270508,8.2635E-5,8.280048672911873,0.5000
51.87897872924805,8.3337E-5,9.199906833876279,0.5000
51.96297836303711,8.2683E-5,8.342944387012764,0.5000
52.01397705078125,8.5436E-5,11.950309621003983,0.5000
52.06497573852539,8.6732E-5,13.648512969702608,0.5000
52.12897872924805,8.8514E-5,15.983548532905271,0.5000
52.19797897338867,8.5748E-5,12.359136529653417,0.5000
52.26097869873047,8.8078E-5,15.412233879004738,0.5000
52.319976806640625,8.9592E-5,17.39609455465363,0.5000
52.37197494506836,8.7387E-5,14.50679110681107,0.5000
52.42897415161133,8.6191E-5,12.939622879319456,0.5000
52.48297119140625,8.8713E-5,16.244303085074343,0.5000
52.57997512817383,9.0644E-5,18.77456610585529,0.5000
52.64697265625,9.3372E-5,22.34918209353204,0.5000
52.70497512817383,9.0541E-5,18.639602981887997,0.5000
52.763973236083984,9.0906E-5,19.1178849878885,0.5000
52.81797409057617,9.3207E-5,22.13297986393284,0.5000
52.902976989746094,9.4131E-5,23.343729510865458,0.5000
52.953975677490234,9.3716E-5,22.79993947824873,0.5000
53.01297378540039,9.1755E-5,20.230358293915856,0.5000
53.07297134399414,9.2104E-5,20.687665527895447,0.5000
53.14297103881836,9.3079E-5,21.965248425676513,0.5000
53.19797134399414,9.3369E-5,22.345254090771757,0.5000
53.25397491455078,9.4337E-5,23.61366529278732,0.5000
53.31297302246094,9.2777E-5,21.569530749540153,0.5000
53.36697006225586,9.2273E-5,20.909120984487153,0.5000
53.41997146606445,9.1956E-5,20.493734692587545,0.5000
53.48097229003906,8.8498E-5,15.96258329487164,0.5000
53.533973693847656,8.7685E-5,14.897274623929487,0.5000
53.5839729309082,8.5773E-5,12.39189530995517,0.5000
53.637969970703125,8.8579E-5,16.068715641297455,0.5000
53.689971923828125,9.5266E-5,24.83096478898283,0.5000
53.74296951293945,9.4379E-5,23.668695467380367,0.5000
53.80997085571289,9.0853E-5,19.048429890537435,0.5000
53.86296844482422,8.7821E-5,15.075474380221705,0.5000
53.91596984863281,9.0749E-5,18.912160610312476,0.5000
53.969970703125,9.2184E-5,20.792491718063598,0.5000
54.03297424316406,9.1445E-5,19.82415323176904,0.5000
54.08897399902344,8.8724E-5,16.25871847384508,0.5000
54.14697265625,8.5605E-5,12.171765077595692,0.5000
54.20197296142578,9.0156E-5,18.13512157883592,0.5000
54.257972717285156,9.3945E-5,23.10000265998245,0.5000
54.33197021484375,9.3368E-5,22.34393840052681,0.5000
54.382972717285156,9.1023E-5,19.271191503386806,0.5000
54.43696975708008,9.16E-5,20.027255762842447,0.5000
54.49997329711914,9.3104E-5,21.99800720597827,0.5000
54.55097198486328,9.1465E-5,19.850362162807897,0.5000
54.61697006225586,8.7891E-5,15.16720087186407,0.5000
54.668968200683594,8.8276E-5,15.671682274916146,0.5000
54.72196578979492,8.8724E-5,16.25871847384508,0.5000
54.78596496582031,8.9154E-5,16.822158054250487,0.5000
54.84196472167969,9.2613E-5,21.354634676198618,0.5000
54.9749641418457,9.3932E-5,23.082974958696383,0.5000
55.02896499633789,8.8961E-5,16.569269041589255,0.5000
55.07896423339844,9.1554E-5,19.96698189524417,0.5000
55.13096237182617,9.1219E-5,19.5280180527956,0.5000
55.18996047973633,9.0869E-5,19.069395128571063,0.5000
55.244964599609375,9.0858E-5,19.054979739800327,0.5000
55.2979621887207,9.1529E-5,19.93422311494242,0.5000
55.36196517944336,9.2276E-5,20.913048987247436,0.5000
55.426963806152344,9.3833E-5,22.95324599374704,0.5000
55.498966217041016,9.4811E-5,24.23476642827567,0.5000
55.58796691894531,9.745E-5,27.692753149528865,0.5000
55.63996505737305,9.7524E-5,27.789713800189176,0.5000
55.69196319580078,9.8061E-5,28.49336973155438,0.5000
55.7459602355957,9.8252E-5,28.74364643170028,0.5000
55.80696105957031,9.7748E-5,28.08323666664728,0.5000
55.868961334228516,9.8454E-5,29.008338520616917,0.5000
55.92196273803711,9.6896E-5,26.96682582387236,0.5000
55.976966857910156,9.6945E-5,27.031027694230918,0.5000
56.0379638671875,9.6788E-5,26.825303316654892,0.5000
56.0899658203125,9.7082E-5,27.210543140768085,0.5000
56.150962829589844,1.0064E-4,31.872739193678278,0.5000
56.219966888427734,9.949E-5,30.365844833784944,0.5000
56.27596664428711,9.9928E-5,30.939781334188087,0.5000
56.32696533203125,1.0028E-4,31.401016570927954,0.5000
56.378963470458984,1.0046E-4,31.636877882303118,0.5000
56.44096374511719,9.9297E-5,30.11295582112371,0.5000
56.49496078491211,9.8696E-5,29.325438937623982,0.5000
56.55696105957031,9.7838E-5,28.20116255534122,0.5000
56.61396408081055,9.8099E-5,28.543165747129486,0.5000
56.6729621887207,9.6972E-5,27.066408321035283,0.5000
56.75596237182617,9.687E-5,26.932751353325664,0.5000
56.812957763671875,9.8984E-5,29.70281322222933,0.5000
56.86595916748047,9.8926E-5,29.626817809602652,0.5000
56.91695785522461,9.8099E-5,28.543165747129486,0.5000
56.96995544433594,9.8768E-5,29.41978727576896,0.5000
57.03195571899414,9.9732E-5,30.68295478477929,0.5000
57.08495330810547,9.8552E-5,29.13675179532131,0.5000
57.14295196533203,9.7764E-5,28.10420190468091,0.5000
57.19795227050781,9.6628E-5,26.61565093631859,0.5000
57.25395202636719,9.7493E-5,27.749099014366863,0.5000
57.31795120239258,9.7283E-5,27.47392907342705,0.5000
57.38494873046875,9.6112E-5,25.93951962623719,0.5000
57.450950622558594,9.363E-5,22.68724774857274,0.5000
57.505950927734375,9.076E-5,18.926566465095927,0.5000
57.557952880859375,9.0858E-5,19.054979739800327,0.5000
57.62395477294922,9.0807E-5,18.988156022939155,0.5000
57.67695617675781,8.9074E-5,16.717331864082333,0.5000
57.731956481933594,8.7518E-5,14.678441013840393,0.5000
57.78395462036133,8.5399E-5,11.90182929567383,0.5000
57.83695602416992,8.8574E-5,16.062165792034563,0.5000
57.93495559692383,8.9631E-5,17.4471967264864,0.5000
57.9909553527832,8.8984E-5,16.599405975388393,0.5000
58.04295349121094,8.6963E-5,13.951207531926224,0.5000
58.10995101928711,8.5917E-5,12.580591986245127,0.5000
58.17595291137695,8.5032E-5,11.420934977157996,0.5000
58.2259521484375,8.2913E-5,8.644323258991433,0.5000
58.27994918823242,8.4669E-5,10.945284351647391,0.5000
58.332950592041016,8.4342E-5,10.516798361221994,0.5000
58.38395309448242,8.5238E-5,11.690870759079859,0.5000
58.44395065307617,8.9227E-5,16.91782208264041,0.5000
58.49495315551758,9.0108E-5,18.07222586473503,0.5000
58.573951721191406,8.9858E-5,17.744638061717506,0.5000
58.62495040893555,8.6207E-5,12.960588117353087,0.5000
58.68095016479492,8.8776E-5,16.3268578809512,0.5000
58.73094940185547,8.9204E-5,16.88767561485399,0.5000
58.79594802856445,8.662E-5,13.501756303467197,0.5000
58.85194778442383,8.6413E-5,13.230514365287668,0.5000
58.906944274902344,8.6154E-5,12.891142553989301,0.5000
58.96894836425781,8.6339E-5,13.133553714627357,0.5000
59.02094650268555,9.0965E-5,19.195186556772846,0.5000
59.07194519042969,9.2014E-5,20.569739639201508,0.5000
59.13894271850586,9.0883E-5,19.08773852010208,0.5000
59.19094467163086,8.8996E-5,16.615127520416795,0.5000
59.24394226074219,9.0027E-5,17.96609351830921,0.5000
59.310943603515625,9.1245E-5,19.562082989355016,0.5000
59.37394332885742,9.0843E-5,19.035330192011642,0.5000
59.43094253540039,9.0555E-5,18.657946373419016,0.5000
59.482940673828125,9.039E-5,18.441744143819815,0.5000
59.54393768310547,9.1876E-5,20.388908502419394,0.5000
59.594940185546875,9.2366E-5,21.030974875941375,0.5000
59.65593719482422,9.3284E-5,22.233868517353432,0.5000
59.7109375,9.2695E-5,21.462082712869385,0.5000
59.80493927001953,9.2174E-5,20.77939201953781,0.5000
59.88194274902344,9.2986E-5,21.843394534222295,0.5000
59.940940856933594,9.1894E-5,20.412495586955636,0.5000
60.004940032958984,9.1618E-5,20.050842847378693,0.5000
60.05793762207031,9.1067E-5,19.32884352448247,0.5000
60.112937927246094,9.1651E-5,20.0940890136909,0.5000
60.16593551635742,9.3539E-5,22.56800616963385,0.5000
60.22693634033203,9.4263E-5,23.516695108139725,0.5000
60.28493881225586,9.3935E-5,23.086902961456662,0.5000
60.340938568115234,9.3752E-5,22.847113647321223,0.5000
60.39693832397461,9.3879E-5,23.0135293953326,0.5000
60.45493698120117,9.4816E-5,24.241316277538566,0.5000
60.50593566894531,9.4196E-5,23.428906153244927,0.5000
60.56193542480469,9.2861E-5,21.679600632713534,0.5000
60.61593246459961,9.2457E-5,21.150216454880262,0.5000
60.67693328857422,9.2639E-5,21.38869961275804,0.5000
60.736934661865234,9.4447E-5,23.757800112520115,0.5000
60.79393768310547,9.482E-5,24.246559970543792,0.5000
60.85093688964844,9.3725E-5,22.811733020516854,0.5000
60.90293502807617,9.3638E-5,22.697735134583194,0.5000
60.98193359375,9.4547E-5,23.88883523372713,0.5000
61.03293228149414,9.5455E-5,25.078619642626116,0.5000
61.08793258666992,9.5587E-5,25.251585239900386,0.5000
61.15693283081055,9.3978E-5,23.14324882629466,0.5000
61.20793151855469,9.3205E-5,22.130358017430225,0.5000
61.25992965698242,9.2941E-5,21.784426822881684,0.5000
61.320926666259766,9.2781E-5,21.57477444254538,0.5000
61.3889274597168,9.4408E-5,23.70669794068735,0.5000
61.442928314208984,9.5381E-5,24.981658991965805,0.5000
61.50993347167969,9.3789E-5,22.895593972651376,0.5000
61.575931549072266,9.173E-5,20.197599513614104,0.5000
61.654930114746094,9.1549E-5,19.96043204598128,0.5000
61.70692825317383,9.2127E-5,20.717802461694586,0.5000
61.759925842285156,9.2678E-5,21.439801784590806,0.5000
61.80992889404297,9.2132E-5,20.72436184494476,0.5000
61.87392807006836,9.2221E-5,20.840981577381037,0.5000
61.93693161010742,9.2195E-5,20.806907106834334,0.5000
61.99592971801758,9.3946E-5,23.1013183502274,0.5000
62.05192947387695,9.1348E-5,19.69705564730959,0.5000
62.113929748535156,9.1447E-5,19.826775078271652,0.5000
62.18192672729492,9.458E-5,23.932071866052055,0.5000
62.2429313659668,9.4736E-5,24.13649008737041,0.5000
62.29492950439453,9.1921E-5,20.44787621376,0.5000
62.34992980957031,9.1394E-5,19.757329514907866,0.5000
62.40892791748047,8.8785E-5,16.33864188923204,0.5000
62.46392822265625,8.653E-5,13.383830414773257,0.5000
62.519927978515625,8.6181E-5,12.926513646806386,0.5000
62.56992721557617,8.7934E-5,15.223546736702065,0.5000
62.6229248046875,9.4705E-5,24.095865767560817,0.5000
62.67792510986328,9.1815E-5,20.308985087032433,0.5000
62.77992630004883,8.9012E-5,16.636092758450427,0.5000
62.8409309387207,8.9304E-5,17.018710736061003,0.5000
62.89693069458008,9.0298E-5,18.321196408623265,0.5000
62.94892883300781,9.1682E-5,20.134703799513215,0.5000
63.00092697143555,9.1475E-5,19.863461861333683,0.5000
63.05492401123047,9.1279E-5,19.60663531192489,0.5000
63.108924865722656,8.9953E-5,17.869123333661623,0.5000
63.16592788696289,8.9015E-5,16.640020761210707,0.5000
63.21692657470703,9.254E-5,21.258980181795977,0.5000
63.27192687988281,9.2065E-5,20.636563356062677,0.5000
63.34092712402344,9.0727E-5,18.883329832771004,0.5000
63.39492416381836,8.8873E-5,16.453955465410647,0.5000
63.450923919677734,9.1529E-5,19.93422311494242,0.5000
63.51492691040039,9.2109E-5,20.69422491114562,0.5000
63.56992721557617,9.0976E-5,19.209601945543582,0.5000
63.61992645263672,8.871E-5,16.240375082314063,0.5000
63.67992401123047,8.9495E-5,17.2689874362069,0.5000
63.730926513671875,8.9603E-5,17.410509943424366,0.5000
63.78292465209961,9.1381E-5,19.740292279634517,0.5000
63.85092544555664,9.4022E-5,23.200900847390322,0.5000
63.9139289855957,9.5038E-5,24.532207763506776,0.5000
63.964927673339844,8.9632E-5,17.448502882744066,0.5000
64.02692413330078,8.9247E-5,16.944021479691987,0.5000
64.07893371582031,9.0462E-5,18.536092481964793,0.5000
64.13593292236328,8.7474E-5,14.620788992744732,0.5000
64.19493103027344,8.9187E-5,16.865404220562695,0.5000
64.2519302368164,8.9606E-5,17.41443794618465,0.5000
64.31392669677734,9.0483E-5,18.563607569261322,0.5000
64.36792755126953,9.1708E-5,20.168778270059914,0.5000
64.41992950439453,9.0942E-5,19.165049622973708,0.5000
64.47293090820312,9.2312E-5,20.960223156319923,0.5000
64.53392791748047,9.134E-5,19.686568261299133,0.5000
64.58392333984375,9.0923E-5,19.140156382179796,0.5000
64.64093017578125,9.1804E-5,20.294569698261697,0.5000
64.71292877197266,9.2582E-5,21.314010356389026,0.5000
64.77592468261719,9.2432E-5,21.11745767457851,0.5000
64.83192443847656,9.215E-5,20.747948929481005,0.5000
64.88592529296875,9.2569E-5,21.296973121115677,0.5000
64.93992614746094,9.1498E-5,19.89359879513282,0.5000
64.99592590332031,9.3173E-5,22.088427541362964,0.5000
65.0509262084961,9.4176E-5,23.40269722220607,0.5000
65.11392211914062,9.4784E-5,24.199385801471305,0.5000
65.17992401123047,8.9587E-5,17.389544705390737,0.5000
65.2489242553711,9.371E-5,22.792073938740888,0.5000
65.29891967773438,9.4015E-5,23.191729151624816,0.5000
65.35392761230469,9.3234E-5,22.168350956749926,0.5000
65.40692901611328,9.2328E-5,20.981188394353552,0.5000
65.46892547607422,9.1523E-5,19.926357575434576,0.5000
65.53593444824219,9.0726E-5,18.882014142526053,0.5000
65.59593200683594,9.3357E-5,22.329523011756073,0.5000
65.6549301147461,9.2925E-5,21.763461584848052,0.5000
65.71692657470703,9.5561E-5,25.21752030334097,0.5000
65.76893615722656,8.9816E-5,17.689607887124456,0.5000
65.81993103027344,9.3912E-5,23.056766027657524,0.5000
65.87294006347656,9.2136E-5,20.729596003962705,0.5000
65.93093872070312,9.066E-5,18.795540877876203,0.5000
65.98993682861328,9.0969E-5,19.200430249778073,0.5000
66.04093933105469,8.9649E-5,17.470783811022645,0.5000
66.09693908691406,8.961E-5,17.419681639189875,0.5000
66.16593933105469,9.0533E-5,18.629125129864825,0.5000
66.2169418334961,9.1354E-5,19.704911652830152,0.5000
66.27294158935547,9.1791E-5,20.277532462988347,0.5000
66.35294342041016,9.024E-5,18.245191462009302,0.5000
66.40894317626953,9.2471E-5,21.168559846411277,0.5000
66.46394348144531,9.2758E-5,21.54462797475896,0.5000
66.52194213867188,9.2673E-5,21.433251935327913,0.5000
66.57894134521484,9.1845E-5,20.34829371659708,0.5000
66.64093780517578,9.1084E-5,19.35112445276105,0.5000
66.6949462890625,9.0973E-5,19.2056739427833,0.5000
66.74894714355469,9.1408E-5,19.77567290643888,0.5000
66.80394744873047,9.1891E-5,20.408567584195357,0.5000
66.88094329833984,9.3602E-5,22.650560965510707,0.5000
66.95094299316406,9.5008E-5,24.492899133942128,0.5000
67.00294494628906,9.4516E-5,23.848210913917534,0.5000
67.06694030761719,9.525E-5,24.8099995509492,0.5000
67.12693786621094,9.4534E-5,23.87179799845378,0.5000
67.1839370727539,9.3361E-5,22.334766704761304,0.5000
67.25593566894531,9.16E-5,20.027255762842447,0.5000
67.3109359741211,9.2577E-5,21.30746050712613,0.5000
67.36593627929688,9.7567E-5,27.846059665027173,0.5000
67.42593383789062,9.7245E-5,27.42413305785195,0.5000
67.4809341430664,9.6293E-5,26.176687093870015,0.5000
67.554931640625,9.4198E-5,23.43152799974754,0.5000
67.63693237304688,9.433E-5,23.60448406303453,0.5000
67.68893432617188,9.3135E-5,22.038631525787864,0.5000
67.74093627929688,9.1926E-5,20.454426063022897,0.5000
67.79293823242188,9.1728E-5,20.19497766711149,0.5000
67.84393310546875,9.1804E-5,20.294569698261697,0.5000
67.90093994140625,9.4237E-5,23.48263017158031,0.5000
67.9609375,9.4197E-5,23.43021230950259,0.5000
68.02593994140625,9.4729E-5,24.127318391604906,0.5000
68.0919418334961,9.3959E-5,23.11835558550075,0.5000
68.1429443359375,9.4665E-5,24.043457439470384,0.5000
68.19593811035156,9.5141E-5,24.667170887474065,0.5000
68.26494598388672,9.3836E-5,22.9571835304946,0.5000
68.31794738769531,9.3028E-5,21.898424708815345,0.5000
68.37694549560547,9.2489E-5,21.192146930947523,0.5000
68.43694305419922,9.2517E-5,21.22884324799684,0.5000
68.4909439086914,9.4912E-5,24.367107705740345,0.5000
68.5429458618164,9.5635E-5,25.31448095400128,0.5000
68.61094665527344,9.5992E-5,25.78227557399132,0.5000
68.66094207763672,9.3627E-5,22.683319745812458,0.5000
68.71595001220703,9.3633E-5,22.6911852853203,0.5000
68.7669448852539,9.3627E-5,22.683319745812458,0.5000
68.83495330810547,9.41E-5,23.303114725043145,0.5000
68.89595031738281,9.273E-5,21.50794119169693,0.5000
68.970947265625,9.362E-5,22.67414805004695,0.5000
69.02694702148438,9.2327E-5,20.979872704108605,0.5000
69.07994842529297,9.2924E-5,21.762145894603105,0.5000
69.13195037841797,9.4208E-5,23.44462769827333,0.5000
69.19294738769531,9.3984E-5,23.151114365802503,0.5000
69.24394989013672,9.1455E-5,19.837252930294827,0.5000
69.29695129394531,9.1239E-5,19.554226983834457,0.5000
69.37495422363281,9.2865E-5,21.68483479173148,0.5000
69.42595672607422,9.252E-5,21.232771250757118,0.5000
69.48995208740234,9.2967E-5,21.818491759441102,0.5000
69.55695343017578,9.0762E-5,18.929188311598544,0.5000
69.62395477294922,8.9173E-5,16.847060829031676,0.5000
69.67695617675781,9.6204E-5,26.06006736143374,0.5000
69.73995208740234,8.9855E-5,17.740710058957223,0.5000
69.79595947265625,9.0762E-5,18.929188311598544,0.5000
69.8609619140625,8.9122E-5,16.780227578183222,0.5000
69.92896270751953,8.9367E-5,17.101265531937855,0.5000
69.97996520996094,9.0204E-5,18.198017292936814,0.5000
70.03196716308594,9.085E-5,19.04450188777715,0.5000
70.1149673461914,9.1141E-5,19.42581370913006,0.5000
70.17196655273438,8.6253E-5,13.020861984951365,0.5000
70.22596740722656,8.8853E-5,16.42774653437179,0.5000
70.28496551513672,9.3739E-5,22.83007641204787,0.5000
70.3399658203125,9.4348E-5,23.628071147570772,0.5000
70.39796447753906,9.3888E-5,23.02531340361344,0.5000
70.4589614868164,9.128E-5,19.60795100216984,0.5000
70.51795959472656,9.1567E-5,19.98401913051752,0.5000
70.58196258544922,9.2183E-5,20.791185561805932,0.5000
70.64295959472656,9.2109E-5,20.69422491114562,0.5000
70.69696807861328,9.1586E-5,20.008912371311432,0.5000
70.75096893310547,8.9861E-5,17.748575598465067,0.5000
70.80496978759766,9.0847E-5,19.040573885016872,0.5000
70.85797119140625,9.4858E-5,24.296346452131615,0.5000
70.91097259521484,9.6539E-5,26.499031203882318,0.5000
70.96297454833984,9.6035E-5,25.838621438829318,0.5000
71.0229721069336,9.401E-5,23.18517930236192,0.5000
71.073974609375,9.4521E-5,23.854760763180426,0.5000
71.12797546386719,9.4327E-5,23.60055606027425,0.5000
71.18297576904297,9.4204E-5,23.4393840052681,0.5000
71.24197387695312,9.3943E-5,23.09739034746712,0.5000
71.2969741821289,9.3887E-5,23.024007247355772,0.5000
71.35997009277344,9.3682E-5,22.755387155678857,0.5000
71.41597747802734,9.522E-5,24.770690921384553,0.5000
71.47797393798828,9.7595E-5,27.882755982076485,0.5000
71.53697204589844,9.6669E-5,26.669374954653975,0.5000
71.59297180175781,9.51E-5,24.613446869138684,0.5000
71.65097045898438,9.3462E-5,22.46710798222598,0.5000
71.70697021484375,9.3988E-5,23.15634852482045,0.5000
71.77696990966797,9.3974E-5,23.138005133289433,0.5000
71.83396911621094,8.9441E-5,17.198226182598166,0.5000
71.88996887207031,8.8165E-5,15.5262317649384,0.5000
71.94996643066406,8.769E-5,14.903824473192381,0.5000
72.011962890625,8.9928E-5,17.836364553359868,0.5000
72.06596374511719,9.8239E-5,28.726609196426928,0.5000
72.12096405029297,9.2149E-5,20.746633239236058,0.5000
72.17796325683594,8.766E-5,14.864515843627736,0.5000
72.2349624633789,8.9301E-5,17.01478273330072,0.5000
72.31896209716797,8.9763E-5,17.620162323760667,0.5000
72.37596130371094,9.0409E-5,18.466637384613726,0.5000
72.42796325683594,9.114E-5,19.424498018885114,0.5000
72.490966796875,9.0265E-5,18.277950242311054,0.5000
72.54596710205078,9.0098E-5,18.059126166209243,0.5000
72.60296630859375,9.0481E-5,18.560985722758705,0.5000
72.67496490478516,9.2812E-5,21.615389228367693,0.5000
72.73396301269531,9.5212E-5,24.760213069361377,0.5000
72.79795837402344,9.1755E-5,20.230358293915856,0.5000
72.86296081542969,9.2345E-5,21.00345978864485,0.5000
72.93696594238281,9.4047E-5,23.233659627692077,0.5000
72.9869613647461,9.4075E-5,23.270355944741393,0.5000
73.04896545410156,9.2477E-5,21.17642538591912,0.5000
73.10396575927734,9.2192E-5,20.802979104074055,0.5000
73.15796661376953,9.2103E-5,20.68635937163778,0.5000
73.21096801757812,9.6346E-5,26.2461326572338,0.5000
73.26496887207031,9.5131E-5,24.65407118894828,0.5000
73.31596374511719,9.6009E-5,25.804546968282615,0.5000
73.38097381591797,9.1552E-5,19.964360048741554,0.5000
73.43997192382812,9.3499E-5,22.515597841543418,0.5000
73.4919662475586,9.4144E-5,23.360766746138808,0.5000
73.56297302246094,9.4985E-5,24.46276220014299,0.5000
73.61697387695312,9.363E-5,22.68724774857274,0.5000
73.66997528076172,9.1658E-5,20.103260709456407,0.5000
73.7249755859375,9.137E-5,19.72587689086378,0.5000
73.78397369384766,9.379E-5,22.896900128909042,0.5000
73.83397674560547,9.5646E-5,25.328896342772012,0.5000
73.88497924804688,9.6589E-5,26.564548764485824,0.5000
73.95797729492188,9.1741E-5,20.21201490238484,0.5000
74.01097869873047,9.0132E-5,18.103678488779117,0.5000
74.06497955322266,9.0511E-5,18.600294352323353,0.5000
74.16197967529297,9.1213E-5,19.520152513287755,0.5000
74.21697998046875,9.1029E-5,19.279047508907365,0.5000
74.27198028564453,9.0362E-5,18.405057360757784,0.5000
74.32498168945312,8.9099E-5,16.750090644384088,0.5000
74.38497924804688,9.3297E-5,22.25090575262678,0.5000
74.4479751586914,9.6584E-5,26.557998915222925,0.5000
74.5069808959961,9.5018E-5,24.505998832467917,0.5000
74.56997680664062,9.1716E-5,20.17925612208309,0.5000
74.63298034667969,9.147E-5,19.85691201207079,0.5000
74.69898223876953,9.0194E-5,18.184917594411022,0.5000
74.7569808959961,8.8447E-5,15.895750044023185,0.5000
