July 5, 2024   17:37:38
Amperometric i-t Curve
File: 6
Data Source:  Experiment
Instrument Model:  CHI760E
Header: 
Note: 

Init E (V) = 0.1
Sample Interval (s) = 0.03
Run Time (sec) = 4e+3
Quiet Time (sec) = 0
Sensitivity (A/V) = 1e-5

Results:

Channel 1:

Time/sec, Current/A

3.000e-2, 3.108e-6
6.000e-2, 3.104e-6
9.000e-2, 3.129e-6
1.200e-1, 3.138e-6
1.500e-1, 3.143e-6
1.800e-1, 3.153e-6
2.100e-1, 3.159e-6
2.400e-1, 3.156e-6
2.700e-1, 3.094e-6
3.000e-1, 3.010e-6
3.300e-1, 3.096e-6
3.600e-1, 3.112e-6
3.900e-1, 3.111e-6
4.200e-1, 3.057e-6
4.500e-1, 3.038e-6
4.800e-1, 3.040e-6
5.100e-1, 3.032e-6
5.400e-1, 3.031e-6
5.700e-1, 3.050e-6
6.000e-1, 3.119e-6
6.300e-1, 3.099e-6
6.600e-1, 3.066e-6
6.900e-1, 3.072e-6
7.200e-1, 3.066e-6
7.500e-1, 3.067e-6
7.800e-1, 3.061e-6
8.100e-1, 3.068e-6
8.400e-1, 3.076e-6
8.700e-1, 3.072e-6
9.000e-1, 3.019e-6
9.300e-1, 3.089e-6
9.600e-1, 3.098e-6
9.900e-1, 3.112e-6
1.020e+0, 3.064e-6
1.050e+0, 3.066e-6
1.080e+0, 3.193e-6
1.110e+0, 3.254e-6
1.140e+0, 3.252e-6
1.170e+0, 3.231e-6
1.200e+0, 3.204e-6
1.230e+0, 3.187e-6
1.260e+0, 3.196e-6
1.290e+0, 3.177e-6
1.320e+0, 3.186e-6
1.350e+0, 3.198e-6
1.380e+0, 3.209e-6
1.410e+0, 3.211e-6
1.440e+0, 3.217e-6
1.470e+0, 3.246e-6
1.500e+0, 3.334e-6
1.530e+0, 3.330e-6
1.560e+0, 3.345e-6
1.590e+0, 3.358e-6
1.620e+0, 3.379e-6
1.650e+0, 3.401e-6
1.680e+0, 3.440e-6
1.710e+0, 3.457e-6
1.740e+0, 3.456e-6
1.770e+0, 3.451e-6
1.800e+0, 3.465e-6
1.830e+0, 3.451e-6
1.860e+0, 3.450e-6
1.890e+0, 3.446e-6
1.920e+0, 3.400e-6
1.950e+0, 3.367e-6
1.980e+0, 3.263e-6
2.010e+0, 3.297e-6
2.040e+0, 3.245e-6
2.070e+0, 3.288e-6
2.100e+0, 3.313e-6
2.130e+0, 3.357e-6
2.160e+0, 3.408e-6
2.190e+0, 3.430e-6
2.220e+0, 3.484e-6
2.250e+0, 3.519e-6
2.280e+0, 3.568e-6
2.310e+0, 3.635e-6
2.340e+0, 3.641e-6
2.370e+0, 3.626e-6
2.400e+0, 3.570e-6
2.430e+0, 3.620e-6
2.460e+0, 3.610e-6
2.490e+0, 3.631e-6
2.520e+0, 3.701e-6
2.550e+0, 3.743e-6
2.580e+0, 3.630e-6
2.610e+0, 3.553e-6
2.640e+0, 3.564e-6
2.670e+0, 3.713e-6
2.700e+0, 3.739e-6
2.730e+0, 3.740e-6
2.760e+0, 3.733e-6
2.790e+0, 3.743e-6
2.820e+0, 3.732e-6
2.850e+0, 3.604e-6
2.880e+0, 3.576e-6
2.910e+0, 3.587e-6
2.940e+0, 3.596e-6
2.970e+0, 3.604e-6
3.000e+0, 3.614e-6
3.030e+0, 3.614e-6
3.060e+0, 3.617e-6
3.090e+0, 3.562e-6
3.120e+0, 3.483e-6
3.150e+0, 3.494e-6
3.180e+0, 3.470e-6
3.210e+0, 3.454e-6
3.240e+0, 3.454e-6
3.270e+0, 3.496e-6
3.300e+0, 3.514e-6
3.330e+0, 3.489e-6
3.360e+0, 3.542e-6
3.390e+0, 3.546e-6
3.420e+0, 3.522e-6
3.450e+0, 3.420e-6
3.480e+0, 3.403e-6
3.510e+0, 3.400e-6
3.540e+0, 3.448e-6
3.570e+0, 3.507e-6
3.600e+0, 3.458e-6
3.630e+0, 3.461e-6
3.660e+0, 3.460e-6
3.690e+0, 3.365e-6
3.720e+0, 3.305e-6
3.750e+0, 3.298e-6
3.780e+0, 3.305e-6
3.810e+0, 3.325e-6
3.840e+0, 3.255e-6
3.870e+0, 3.126e-6
3.900e+0, 3.155e-6
3.930e+0, 3.184e-6
3.960e+0, 3.250e-6
3.990e+0, 3.381e-6
4.020e+0, 3.463e-6
4.050e+0, 3.469e-6
4.080e+0, 3.402e-6
4.110e+0, 3.359e-6
4.140e+0, 3.332e-6
4.170e+0, 3.334e-6
4.200e+0, 3.315e-6
4.230e+0, 3.307e-6
4.260e+0, 3.285e-6
4.290e+0, 3.303e-6
4.320e+0, 3.338e-6
4.350e+0, 3.371e-6
4.380e+0, 3.405e-6
4.410e+0, 3.473e-6
4.440e+0, 3.548e-6
4.470e+0, 3.569e-6
4.500e+0, 3.574e-6
4.530e+0, 3.530e-6
4.560e+0, 3.554e-6
4.590e+0, 3.572e-6
4.620e+0, 3.580e-6
4.650e+0, 3.557e-6
4.680e+0, 3.657e-6
4.710e+0, 3.680e-6
4.740e+0, 3.717e-6
4.770e+0, 3.705e-6
4.800e+0, 3.734e-6
4.830e+0, 3.718e-6
4.860e+0, 3.702e-6
4.890e+0, 3.727e-6
4.920e+0, 3.689e-6
4.950e+0, 3.644e-6
4.980e+0, 3.645e-6
5.010e+0, 3.652e-6
5.040e+0, 3.655e-6
5.070e+0, 3.658e-6
5.100e+0, 3.638e-6
5.130e+0, 3.628e-6
5.160e+0, 3.605e-6
5.190e+0, 3.602e-6
5.220e+0, 3.593e-6
5.250e+0, 3.520e-6
5.280e+0, 3.453e-6
5.310e+0, 3.436e-6
5.340e+0, 3.515e-6
5.370e+0, 3.529e-6
5.400e+0, 3.535e-6
5.430e+0, 3.563e-6
5.460e+0, 3.567e-6
5.490e+0, 3.505e-6
5.520e+0, 3.482e-6
5.550e+0, 3.472e-6
5.580e+0, 3.452e-6
5.610e+0, 3.473e-6
5.640e+0, 3.467e-6
5.670e+0, 3.486e-6
5.700e+0, 3.475e-6
5.730e+0, 3.482e-6
5.760e+0, 3.486e-6
5.790e+0, 3.489e-6
5.820e+0, 3.475e-6
5.850e+0, 3.451e-6
5.880e+0, 3.403e-6
5.910e+0, 3.386e-6
5.940e+0, 3.383e-6
5.970e+0, 3.385e-6
6.000e+0, 3.416e-6
6.030e+0, 3.471e-6
6.060e+0, 3.472e-6
6.090e+0, 3.493e-6
6.120e+0, 3.490e-6
6.150e+0, 3.462e-6
6.180e+0, 3.484e-6
6.210e+0, 3.465e-6
6.240e+0, 3.489e-6
6.270e+0, 3.512e-6
6.300e+0, 3.517e-6
6.330e+0, 3.514e-6
6.360e+0, 3.509e-6
6.390e+0, 3.504e-6
6.420e+0, 3.453e-6
6.450e+0, 3.456e-6
6.480e+0, 3.438e-6
6.510e+0, 3.412e-6
6.540e+0, 3.391e-6
6.570e+0, 3.328e-6
6.600e+0, 3.223e-6
6.630e+0, 3.247e-6
6.660e+0, 3.165e-6
6.690e+0, 3.263e-6
6.720e+0, 3.314e-6
6.750e+0, 3.316e-6
6.780e+0, 3.323e-6
6.810e+0, 3.312e-6
6.840e+0, 3.288e-6
6.870e+0, 3.263e-6
6.900e+0, 3.207e-6
6.930e+0, 3.203e-6
6.960e+0, 3.211e-6
6.990e+0, 3.220e-6
7.020e+0, 3.230e-6
7.050e+0, 3.237e-6
7.080e+0, 3.227e-6
7.110e+0, 3.219e-6
7.140e+0, 3.216e-6
7.170e+0, 3.225e-6
7.200e+0, 3.217e-6
7.230e+0, 3.172e-6
7.260e+0, 3.077e-6
7.290e+0, 3.109e-6
7.320e+0, 3.084e-6
7.350e+0, 3.082e-6
7.380e+0, 3.097e-6
7.410e+0, 3.047e-6
7.440e+0, 3.074e-6
7.470e+0, 3.053e-6
7.500e+0, 3.043e-6
7.530e+0, 3.044e-6
7.560e+0, 2.898e-6
7.590e+0, 2.818e-6
7.620e+0, 2.811e-6
7.650e+0, 2.802e-6
7.680e+0, 2.778e-6
7.710e+0, 2.772e-6
7.740e+0, 2.785e-6
7.770e+0, 2.805e-6
7.800e+0, 2.816e-6
7.830e+0, 2.810e-6
7.860e+0, 2.795e-6
7.890e+0, 2.776e-6
7.920e+0, 2.782e-6
7.950e+0, 2.778e-6
7.980e+0, 2.807e-6
8.010e+0, 2.801e-6
8.040e+0, 2.786e-6
8.070e+0, 2.803e-6
8.100e+0, 2.880e-6
8.130e+0, 2.932e-6
8.160e+0, 2.966e-6
8.190e+0, 2.915e-6
8.220e+0, 2.889e-6
8.250e+0, 2.892e-6
8.280e+0, 2.892e-6
8.310e+0, 2.859e-6
8.340e+0, 2.857e-6
8.370e+0, 2.851e-6
8.400e+0, 2.811e-6
8.430e+0, 2.817e-6
8.460e+0, 2.821e-6
8.490e+0, 2.826e-6
8.520e+0, 2.825e-6
8.550e+0, 2.824e-6
8.580e+0, 2.834e-6
8.610e+0, 2.833e-6
8.640e+0, 2.797e-6
8.670e+0, 2.799e-6
8.700e+0, 2.811e-6
8.730e+0, 2.805e-6
8.760e+0, 2.783e-6
8.790e+0, 2.826e-6
8.820e+0, 2.805e-6
8.850e+0, 2.865e-6
8.880e+0, 2.854e-6
8.910e+0, 2.831e-6
8.940e+0, 2.825e-6
8.970e+0, 2.843e-6
9.000e+0, 2.828e-6
9.030e+0, 2.808e-6
9.060e+0, 2.805e-6
9.090e+0, 2.788e-6
9.120e+0, 2.792e-6
9.150e+0, 2.805e-6
9.180e+0, 2.819e-6
9.210e+0, 2.812e-6
9.240e+0, 2.813e-6
9.270e+0, 2.755e-6
9.300e+0, 2.697e-6
9.330e+0, 2.675e-6
9.360e+0, 2.662e-6
9.390e+0, 2.637e-6
9.420e+0, 2.568e-6
9.450e+0, 2.566e-6
9.480e+0, 2.658e-6
9.510e+0, 2.637e-6
9.540e+0, 2.657e-6
9.570e+0, 2.679e-6
9.600e+0, 2.691e-6
9.630e+0, 2.752e-6
9.660e+0, 2.763e-6
9.690e+0, 2.770e-6
9.720e+0, 2.718e-6
9.750e+0, 2.681e-6
9.780e+0, 2.675e-6
9.810e+0, 2.638e-6
9.840e+0, 2.612e-6
9.870e+0, 2.608e-6
9.900e+0, 2.605e-6
9.930e+0, 2.604e-6
9.960e+0, 2.595e-6
9.990e+0, 2.591e-6
1.002e+1, 2.591e-6
1.005e+1, 2.595e-6
1.008e+1, 2.533e-6
1.011e+1, 2.509e-6
1.014e+1, 2.528e-6
1.017e+1, 2.532e-6
1.020e+1, 2.573e-6
1.023e+1, 2.576e-6
1.026e+1, 2.607e-6
1.029e+1, 2.602e-6
1.032e+1, 2.697e-6
1.035e+1, 2.816e-6
1.038e+1, 2.828e-6
1.041e+1, 2.882e-6
1.044e+1, 2.834e-6
1.047e+1, 2.822e-6
1.050e+1, 2.807e-6
1.053e+1, 2.802e-6
1.056e+1, 2.734e-6
1.059e+1, 2.707e-6
1.062e+1, 2.732e-6
1.065e+1, 2.690e-6
1.068e+1, 2.653e-6
1.071e+1, 2.664e-6
1.074e+1, 2.644e-6
1.077e+1, 2.612e-6
1.080e+1, 2.625e-6
1.083e+1, 2.631e-6
1.086e+1, 2.626e-6
1.089e+1, 2.606e-6
1.092e+1, 2.601e-6
1.095e+1, 2.562e-6
1.098e+1, 2.600e-6
1.101e+1, 2.682e-6
1.104e+1, 2.607e-6
1.107e+1, 2.564e-6
1.110e+1, 2.586e-6
1.113e+1, 2.615e-6
1.116e+1, 2.613e-6
1.119e+1, 2.609e-6
1.122e+1, 2.601e-6
1.125e+1, 2.601e-6
1.128e+1, 2.603e-6
1.131e+1, 2.580e-6
1.134e+1, 2.516e-6
1.137e+1, 2.516e-6
1.140e+1, 2.541e-6
1.143e+1, 2.568e-6
1.146e+1, 2.563e-6
1.149e+1, 2.555e-6
1.152e+1, 2.578e-6
1.155e+1, 2.572e-6
1.158e+1, 2.582e-6
1.161e+1, 2.599e-6
1.164e+1, 2.584e-6
1.167e+1, 2.569e-6
1.170e+1, 2.555e-6
1.173e+1, 2.560e-6
1.176e+1, 2.594e-6
1.179e+1, 2.659e-6
1.182e+1, 2.669e-6
1.185e+1, 2.671e-6
1.188e+1, 2.648e-6
1.191e+1, 2.657e-6
1.194e+1, 2.662e-6
1.197e+1, 2.635e-6
1.200e+1, 2.655e-6
1.203e+1, 2.668e-6
1.206e+1, 2.681e-6
1.209e+1, 2.624e-6
1.212e+1, 2.615e-6
1.215e+1, 2.628e-6
1.218e+1, 2.583e-6
1.221e+1, 2.592e-6
1.224e+1, 2.622e-6
1.227e+1, 2.625e-6
1.230e+1, 2.561e-6
1.233e+1, 2.548e-6
1.236e+1, 2.535e-6
1.239e+1, 2.526e-6
1.242e+1, 2.476e-6
1.245e+1, 2.504e-6
1.248e+1, 2.573e-6
1.251e+1, 2.562e-6
1.254e+1, 2.548e-6
1.257e+1, 2.604e-6
1.260e+1, 2.621e-6
1.263e+1, 2.622e-6
1.266e+1, 2.614e-6
1.269e+1, 2.578e-6
1.272e+1, 2.567e-6
1.275e+1, 2.531e-6
1.278e+1, 2.568e-6
1.281e+1, 2.570e-6
1.284e+1, 2.574e-6
1.287e+1, 2.564e-6
1.290e+1, 2.563e-6
1.293e+1, 2.561e-6
1.296e+1, 2.523e-6
1.299e+1, 2.528e-6
1.302e+1, 2.549e-6
1.305e+1, 2.572e-6
1.308e+1, 2.588e-6
1.311e+1, 2.581e-6
1.314e+1, 2.609e-6
1.317e+1, 2.613e-6
1.320e+1, 2.642e-6
1.323e+1, 2.642e-6
1.326e+1, 2.688e-6
1.329e+1, 2.762e-6
1.332e+1, 2.764e-6
1.335e+1, 2.736e-6
1.338e+1, 2.735e-6
1.341e+1, 2.665e-6
1.344e+1, 2.699e-6
1.347e+1, 2.659e-6
1.350e+1, 2.673e-6
1.353e+1, 2.679e-6
1.356e+1, 2.668e-6
1.359e+1, 2.687e-6
1.362e+1, 2.714e-6
1.365e+1, 2.729e-6
1.368e+1, 2.724e-6
1.371e+1, 2.720e-6
1.374e+1, 2.631e-6
1.377e+1, 2.609e-6
1.380e+1, 2.567e-6
1.383e+1, 2.558e-6
1.386e+1, 2.543e-6
1.389e+1, 2.612e-6
1.392e+1, 2.622e-6
1.395e+1, 2.563e-6
1.398e+1, 2.663e-6
1.401e+1, 2.652e-6
1.404e+1, 2.639e-6
1.407e+1, 2.634e-6
1.410e+1, 2.611e-6
1.413e+1, 2.487e-6
1.416e+1, 2.419e-6
1.419e+1, 2.400e-6
1.422e+1, 2.419e-6
1.425e+1, 2.437e-6
1.428e+1, 2.434e-6
1.431e+1, 2.432e-6
1.434e+1, 2.440e-6
1.437e+1, 2.430e-6
1.440e+1, 2.430e-6
1.443e+1, 2.438e-6
1.446e+1, 2.438e-6
1.449e+1, 2.436e-6
1.452e+1, 2.435e-6
1.455e+1, 2.455e-6
1.458e+1, 2.442e-6
1.461e+1, 2.453e-6
1.464e+1, 2.420e-6
1.467e+1, 2.424e-6
1.470e+1, 2.448e-6
1.473e+1, 2.488e-6
1.476e+1, 2.492e-6
1.479e+1, 2.488e-6
1.482e+1, 2.428e-6
1.485e+1, 2.375e-6
1.488e+1, 2.334e-6
1.491e+1, 2.328e-6
1.494e+1, 2.332e-6
1.497e+1, 2.343e-6
1.500e+1, 2.345e-6
1.503e+1, 2.368e-6
1.506e+1, 2.373e-6
1.509e+1, 2.410e-6
1.512e+1, 2.404e-6
1.515e+1, 2.385e-6
1.518e+1, 2.375e-6
1.521e+1, 2.366e-6
1.524e+1, 2.363e-6
1.527e+1, 2.358e-6
1.530e+1, 2.363e-6
1.533e+1, 2.370e-6
1.536e+1, 2.350e-6
1.539e+1, 2.375e-6
1.542e+1, 2.372e-6
1.545e+1, 2.448e-6
1.548e+1, 2.438e-6
1.551e+1, 2.431e-6
1.554e+1, 2.440e-6
1.557e+1, 2.504e-6
1.560e+1, 2.488e-6
1.563e+1, 2.406e-6
1.566e+1, 2.398e-6
1.569e+1, 2.393e-6
1.572e+1, 2.383e-6
1.575e+1, 2.381e-6
1.578e+1, 2.415e-6
1.581e+1, 2.442e-6
1.584e+1, 2.447e-6
1.587e+1, 2.458e-6
1.590e+1, 2.461e-6
1.593e+1, 2.400e-6
1.596e+1, 2.389e-6
1.599e+1, 2.396e-6
1.602e+1, 2.391e-6
1.605e+1, 2.406e-6
1.608e+1, 2.468e-6
1.611e+1, 2.528e-6
1.614e+1, 2.533e-6
1.617e+1, 2.546e-6
1.620e+1, 2.566e-6
1.623e+1, 2.591e-6
1.626e+1, 2.591e-6
1.629e+1, 2.599e-6
1.632e+1, 2.595e-6
1.635e+1, 2.595e-6
1.638e+1, 2.579e-6
1.641e+1, 2.614e-6
1.644e+1, 2.586e-6
1.647e+1, 2.559e-6
1.650e+1, 2.566e-6
1.653e+1, 2.586e-6
1.656e+1, 2.573e-6
1.659e+1, 2.568e-6
1.662e+1, 2.576e-6
1.665e+1, 2.588e-6
1.668e+1, 2.588e-6
1.671e+1, 2.581e-6
1.674e+1, 2.580e-6
1.677e+1, 2.550e-6
1.680e+1, 2.551e-6
1.683e+1, 2.545e-6
1.686e+1, 2.527e-6
1.689e+1, 2.527e-6
1.692e+1, 2.395e-6
1.695e+1, 2.340e-6
1.698e+1, 2.219e-6
1.701e+1, 2.123e-6
1.704e+1, 1.969e-6
1.707e+1, 1.935e-6
1.710e+1, 1.974e-6
1.713e+1, 1.959e-6
1.716e+1, 1.971e-6
1.719e+1, 1.860e-6
1.722e+1, 1.613e-6
1.725e+1, 1.478e-6
1.728e+1, 1.541e-6
1.731e+1, 1.387e-6
1.734e+1, 1.265e-6
1.737e+1, 1.224e-6
1.740e+1, 1.281e-6
1.743e+1, 1.306e-6
1.746e+1, 1.319e-6
1.749e+1, 1.349e-6
1.752e+1, 1.450e-6
1.755e+1, 1.518e-6
1.758e+1, 1.614e-6
1.761e+1, 1.621e-6
1.764e+1, 1.646e-6
1.767e+1, 1.733e-6
1.770e+1, 1.620e-6
1.773e+1, 1.625e-6
1.776e+1, 1.724e-6
1.779e+1, 1.752e-6
1.782e+1, 1.902e-6
1.785e+1, 1.855e-6
1.788e+1, 1.855e-6
1.791e+1, 1.839e-6
1.794e+1, 1.814e-6
1.797e+1, 1.839e-6
1.800e+1, 1.825e-6
1.803e+1, 1.855e-6
1.806e+1, 1.784e-6
1.809e+1, 1.788e-6
1.812e+1, 1.777e-6
1.815e+1, 1.760e-6
1.818e+1, 1.642e-6
1.821e+1, 1.558e-6
1.824e+1, 1.550e-6
1.827e+1, 1.523e-6
1.830e+1, 1.394e-6
1.833e+1, 1.419e-6
1.836e+1, 1.496e-6
1.839e+1, 1.526e-6
1.842e+1, 1.492e-6
1.845e+1, 1.651e-6
1.848e+1, 1.719e-6
1.851e+1, 1.699e-6
1.854e+1, 1.670e-6
1.857e+1, 1.686e-6
1.860e+1, 1.590e-6
1.863e+1, 1.534e-6
1.866e+1, 1.599e-6
1.869e+1, 1.670e-6
1.872e+1, 1.815e-6
1.875e+1, 1.857e-6
1.878e+1, 1.802e-6
1.881e+1, 1.879e-6
1.884e+1, 1.953e-6
1.887e+1, 1.949e-6
1.890e+1, 1.975e-6
1.893e+1, 1.970e-6
1.896e+1, 1.957e-6
1.899e+1, 2.028e-6
1.902e+1, 2.047e-6
1.905e+1, 2.088e-6
1.908e+1, 2.109e-6
1.911e+1, 2.116e-6
1.914e+1, 2.121e-6
1.917e+1, 2.122e-6
1.920e+1, 2.119e-6
1.923e+1, 2.213e-6
1.926e+1, 2.160e-6
1.929e+1, 2.114e-6
1.932e+1, 2.141e-6
1.935e+1, 2.159e-6
1.938e+1, 2.147e-6
1.941e+1, 2.074e-6
1.944e+1, 2.118e-6
1.947e+1, 2.133e-6
1.950e+1, 2.159e-6
1.953e+1, 2.190e-6
1.956e+1, 2.191e-6
1.959e+1, 2.238e-6
1.962e+1, 2.312e-6
1.965e+1, 2.354e-6
1.968e+1, 2.324e-6
1.971e+1, 2.407e-6
1.974e+1, 2.455e-6
1.977e+1, 2.551e-6
1.980e+1, 2.587e-6
1.983e+1, 2.566e-6
1.986e+1, 2.565e-6
1.989e+1, 2.562e-6
1.992e+1, 2.542e-6
1.995e+1, 2.561e-6
1.998e+1, 2.641e-6
2.001e+1, 2.624e-6
2.004e+1, 2.520e-6
2.007e+1, 2.528e-6
2.010e+1, 2.519e-6
2.013e+1, 2.514e-6
2.016e+1, 2.518e-6
2.019e+1, 2.544e-6
2.022e+1, 2.535e-6
2.025e+1, 2.536e-6
2.028e+1, 2.556e-6
2.031e+1, 2.556e-6
2.034e+1, 2.537e-6
2.037e+1, 2.546e-6
2.040e+1, 2.583e-6
2.043e+1, 2.578e-6
2.046e+1, 2.579e-6
2.049e+1, 2.606e-6
2.052e+1, 2.618e-6
2.055e+1, 2.608e-6
2.058e+1, 2.598e-6
2.061e+1, 2.589e-6
2.064e+1, 2.579e-6
2.067e+1, 2.567e-6
2.070e+1, 2.604e-6
2.073e+1, 2.651e-6
2.076e+1, 2.615e-6
2.079e+1, 2.605e-6
2.082e+1, 2.599e-6
2.085e+1, 2.612e-6
2.088e+1, 2.621e-6
2.091e+1, 2.613e-6
2.094e+1, 2.603e-6
2.097e+1, 2.652e-6
2.100e+1, 2.669e-6
2.103e+1, 2.664e-6
2.106e+1, 2.664e-6
2.109e+1, 2.663e-6
2.112e+1, 2.620e-6
2.115e+1, 2.582e-6
2.118e+1, 2.587e-6
2.121e+1, 2.548e-6
2.124e+1, 2.512e-6
2.127e+1, 2.523e-6
2.130e+1, 2.502e-6
2.133e+1, 2.455e-6
2.136e+1, 2.454e-6
2.139e+1, 2.445e-6
2.142e+1, 2.435e-6
2.145e+1, 2.507e-6
2.148e+1, 2.633e-6
2.151e+1, 2.698e-6
2.154e+1, 2.729e-6
2.157e+1, 2.730e-6
2.160e+1, 2.740e-6
2.163e+1, 2.735e-6
2.166e+1, 2.733e-6
2.169e+1, 2.664e-6
2.172e+1, 2.672e-6
2.175e+1, 2.676e-6
2.178e+1, 2.680e-6
2.181e+1, 2.699e-6
2.184e+1, 2.694e-6
2.187e+1, 2.707e-6
2.190e+1, 2.705e-6
2.193e+1, 2.676e-6
2.196e+1, 2.651e-6
2.199e+1, 2.626e-6
2.202e+1, 2.617e-6
2.205e+1, 2.597e-6
2.208e+1, 2.585e-6
2.211e+1, 2.574e-6
2.214e+1, 2.556e-6
2.217e+1, 2.549e-6
2.220e+1, 2.595e-6
2.223e+1, 2.677e-6
2.226e+1, 2.720e-6
2.229e+1, 2.740e-6
2.232e+1, 2.739e-6
2.235e+1, 2.740e-6
2.238e+1, 2.734e-6
2.241e+1, 2.719e-6
2.244e+1, 2.678e-6
2.247e+1, 2.679e-6
2.250e+1, 2.671e-6
2.253e+1, 2.688e-6
2.256e+1, 2.684e-6
2.259e+1, 2.685e-6
2.262e+1, 2.706e-6
2.265e+1, 2.685e-6
2.268e+1, 2.674e-6
2.271e+1, 2.656e-6
2.274e+1, 2.646e-6
2.277e+1, 2.622e-6
2.280e+1, 2.615e-6
2.283e+1, 2.618e-6
2.286e+1, 2.615e-6
2.289e+1, 2.612e-6
2.292e+1, 2.619e-6
2.295e+1, 2.637e-6
2.298e+1, 2.711e-6
2.301e+1, 2.738e-6
2.304e+1, 2.702e-6
2.307e+1, 2.699e-6
2.310e+1, 2.713e-6
2.313e+1, 2.713e-6
2.316e+1, 2.679e-6
2.319e+1, 2.654e-6
2.322e+1, 2.680e-6
2.325e+1, 2.674e-6
2.328e+1, 2.660e-6
2.331e+1, 2.651e-6
2.334e+1, 2.634e-6
2.337e+1, 2.605e-6
2.340e+1, 2.596e-6
2.343e+1, 2.609e-6
2.346e+1, 2.591e-6
2.349e+1, 2.562e-6
2.352e+1, 2.541e-6
2.355e+1, 2.519e-6
2.358e+1, 2.518e-6
2.361e+1, 2.517e-6
2.364e+1, 2.518e-6
2.367e+1, 2.509e-6
2.370e+1, 2.525e-6
2.373e+1, 2.607e-6
2.376e+1, 2.665e-6
2.379e+1, 2.691e-6
2.382e+1, 2.726e-6
2.385e+1, 2.714e-6
2.388e+1, 2.702e-6
2.391e+1, 2.691e-6
2.394e+1, 2.661e-6
2.397e+1, 2.663e-6
2.400e+1, 2.653e-6
2.403e+1, 2.656e-6
2.406e+1, 2.655e-6
2.409e+1, 2.645e-6
2.412e+1, 2.648e-6
2.415e+1, 2.631e-6
2.418e+1, 2.632e-6
2.421e+1, 2.604e-6
2.424e+1, 2.587e-6
2.427e+1, 2.543e-6
2.430e+1, 2.507e-6
2.433e+1, 2.486e-6
2.436e+1, 2.481e-6
2.439e+1, 2.457e-6
2.442e+1, 2.432e-6
2.445e+1, 2.475e-6
2.448e+1, 2.600e-6
2.451e+1, 2.683e-6
2.454e+1, 2.688e-6
2.457e+1, 2.683e-6
2.460e+1, 2.675e-6
2.463e+1, 2.662e-6
2.466e+1, 2.633e-6
2.469e+1, 2.610e-6
2.472e+1, 2.626e-6
2.475e+1, 2.624e-6
2.478e+1, 2.633e-6
2.481e+1, 2.623e-6
2.484e+1, 2.611e-6
2.487e+1, 2.604e-6
2.490e+1, 2.584e-6
2.493e+1, 2.576e-6
2.496e+1, 2.561e-6
2.499e+1, 2.550e-6
2.502e+1, 2.540e-6
2.505e+1, 2.543e-6
2.508e+1, 2.537e-6
2.511e+1, 2.485e-6
2.514e+1, 2.504e-6
2.517e+1, 2.587e-6
2.520e+1, 2.682e-6
2.523e+1, 2.661e-6
2.526e+1, 2.652e-6
2.529e+1, 2.657e-6
2.532e+1, 2.642e-6
2.535e+1, 2.608e-6
2.538e+1, 2.605e-6
2.541e+1, 2.616e-6
2.544e+1, 2.623e-6
2.547e+1, 2.638e-6
2.550e+1, 2.638e-6
2.553e+1, 2.593e-6
2.556e+1, 2.573e-6
2.559e+1, 2.524e-6
2.562e+1, 2.471e-6
2.565e+1, 2.466e-6
2.568e+1, 2.437e-6
2.571e+1, 2.407e-6
2.574e+1, 2.418e-6
2.577e+1, 2.407e-6
2.580e+1, 2.296e-6
2.583e+1, 2.283e-6
2.586e+1, 2.422e-6
2.589e+1, 2.587e-6
2.592e+1, 2.696e-6
2.595e+1, 2.688e-6
2.598e+1, 2.673e-6
2.601e+1, 2.655e-6
2.604e+1, 2.661e-6
2.607e+1, 2.628e-6
2.610e+1, 2.579e-6
2.613e+1, 2.589e-6
2.616e+1, 2.581e-6
2.619e+1, 2.564e-6
2.622e+1, 2.569e-6
2.625e+1, 2.559e-6
2.628e+1, 2.519e-6
2.631e+1, 2.466e-6
2.634e+1, 2.432e-6
2.637e+1, 2.424e-6
2.640e+1, 2.429e-6
2.643e+1, 2.404e-6
2.646e+1, 2.297e-6
2.649e+1, 2.299e-6
2.652e+1, 2.299e-6
2.655e+1, 2.316e-6
2.658e+1, 2.428e-6
2.661e+1, 2.577e-6
2.664e+1, 2.663e-6
2.667e+1, 2.695e-6
2.670e+1, 2.700e-6
2.673e+1, 2.694e-6
2.676e+1, 2.677e-6
2.679e+1, 2.670e-6
2.682e+1, 2.670e-6
2.685e+1, 2.670e-6
2.688e+1, 2.673e-6
2.691e+1, 2.676e-6
2.694e+1, 2.630e-6
2.697e+1, 2.575e-6
2.700e+1, 2.580e-6
2.703e+1, 2.576e-6
2.706e+1, 2.557e-6
2.709e+1, 2.545e-6
2.712e+1, 2.547e-6
2.715e+1, 2.534e-6
2.718e+1, 2.535e-6
2.721e+1, 2.536e-6
2.724e+1, 2.518e-6
2.727e+1, 2.518e-6
2.730e+1, 2.535e-6
2.733e+1, 2.615e-6
2.736e+1, 2.685e-6
2.739e+1, 2.703e-6
2.742e+1, 2.704e-6
2.745e+1, 2.685e-6
2.748e+1, 2.689e-6
2.751e+1, 2.692e-6
2.754e+1, 2.680e-6
2.757e+1, 2.686e-6
2.760e+1, 2.699e-6
2.763e+1, 2.704e-6
2.766e+1, 2.668e-6
2.769e+1, 2.628e-6
2.772e+1, 2.619e-6
2.775e+1, 2.628e-6
2.778e+1, 2.613e-6
2.781e+1, 2.574e-6
2.784e+1, 2.550e-6
2.787e+1, 2.543e-6
2.790e+1, 2.544e-6
2.793e+1, 2.542e-6
2.796e+1, 2.535e-6
2.799e+1, 2.508e-6
2.802e+1, 2.543e-6
2.805e+1, 2.622e-6
2.808e+1, 2.698e-6
2.811e+1, 2.744e-6
2.814e+1, 2.747e-6
2.817e+1, 2.734e-6
2.820e+1, 2.724e-6
2.823e+1, 2.715e-6
2.826e+1, 2.709e-6
2.829e+1, 2.708e-6
2.832e+1, 2.708e-6
2.835e+1, 2.718e-6
2.838e+1, 2.721e-6
2.841e+1, 2.653e-6
2.844e+1, 2.601e-6
2.847e+1, 2.572e-6
2.850e+1, 2.552e-6
2.853e+1, 2.528e-6
2.856e+1, 2.499e-6
2.859e+1, 2.489e-6
2.862e+1, 2.496e-6
2.865e+1, 2.469e-6
2.868e+1, 2.474e-6
2.871e+1, 2.428e-6
2.874e+1, 2.422e-6
2.877e+1, 2.435e-6
2.880e+1, 2.583e-6
2.883e+1, 2.693e-6
2.886e+1, 2.771e-6
2.889e+1, 2.765e-6
2.892e+1, 2.748e-6
2.895e+1, 2.726e-6
2.898e+1, 2.733e-6
2.901e+1, 2.712e-6
2.904e+1, 2.730e-6
2.907e+1, 2.730e-6
2.910e+1, 2.728e-6
2.913e+1, 2.727e-6
2.916e+1, 2.646e-6
2.919e+1, 2.605e-6
2.922e+1, 2.540e-6
2.925e+1, 2.468e-6
2.928e+1, 2.441e-6
2.931e+1, 2.465e-6
2.934e+1, 2.457e-6
2.937e+1, 2.440e-6
2.940e+1, 2.408e-6
2.943e+1, 2.407e-6
2.946e+1, 2.412e-6
2.949e+1, 2.373e-6
2.952e+1, 2.429e-6
2.955e+1, 2.595e-6
2.958e+1, 2.716e-6
2.961e+1, 2.778e-6
2.964e+1, 2.663e-6
2.967e+1, 2.617e-6
2.970e+1, 2.614e-6
2.973e+1, 2.603e-6
2.976e+1, 2.612e-6
2.979e+1, 2.671e-6
2.982e+1, 2.679e-6
2.985e+1, 2.687e-6
2.988e+1, 2.690e-6
2.991e+1, 2.661e-6
2.994e+1, 2.645e-6
2.997e+1, 2.641e-6
3.000e+1, 2.613e-6
3.003e+1, 2.561e-6
3.006e+1, 2.452e-6
3.009e+1, 2.397e-6
3.012e+1, 2.368e-6
3.015e+1, 2.363e-6
3.018e+1, 2.363e-6
3.021e+1, 2.349e-6
3.024e+1, 2.247e-6
3.027e+1, 2.252e-6
3.030e+1, 2.622e-6
3.033e+1, 2.782e-6
3.036e+1, 2.790e-6
3.039e+1, 2.749e-6
3.042e+1, 2.737e-6
3.045e+1, 2.704e-6
3.048e+1, 2.699e-6
3.051e+1, 2.705e-6
3.054e+1, 2.716e-6
3.057e+1, 2.724e-6
3.060e+1, 2.728e-6
3.063e+1, 2.734e-6
3.066e+1, 2.728e-6
3.069e+1, 2.707e-6
3.072e+1, 2.642e-6
3.075e+1, 2.558e-6
3.078e+1, 2.441e-6
3.081e+1, 2.412e-6
3.084e+1, 2.404e-6
3.087e+1, 2.402e-6
3.090e+1, 2.377e-6
3.093e+1, 2.331e-6
3.096e+1, 2.253e-6
3.099e+1, 2.246e-6
3.102e+1, 2.217e-6
3.105e+1, 2.213e-6
3.108e+1, 2.529e-6
3.111e+1, 2.773e-6
3.114e+1, 2.768e-6
3.117e+1, 2.757e-6
3.120e+1, 2.757e-6
3.123e+1, 2.744e-6
3.126e+1, 2.744e-6
3.129e+1, 2.750e-6
3.132e+1, 2.703e-6
3.135e+1, 2.729e-6
3.138e+1, 2.712e-6
3.141e+1, 2.695e-6
3.144e+1, 2.625e-6
3.147e+1, 2.448e-6
3.150e+1, 2.412e-6
3.153e+1, 2.406e-6
3.156e+1, 2.308e-6
3.159e+1, 2.301e-6
3.162e+1, 2.276e-6
3.165e+1, 2.277e-6
3.168e+1, 2.257e-6
3.171e+1, 2.200e-6
3.174e+1, 2.181e-6
3.177e+1, 2.193e-6
3.180e+1, 2.152e-6
3.183e+1, 2.113e-6
3.186e+1, 2.148e-6
3.189e+1, 2.516e-6
3.192e+1, 2.728e-6
3.195e+1, 2.822e-6
3.198e+1, 2.786e-6
3.201e+1, 2.774e-6
3.204e+1, 2.775e-6
3.207e+1, 2.783e-6
3.210e+1, 2.724e-6
3.213e+1, 2.743e-6
3.216e+1, 2.742e-6
3.219e+1, 2.735e-6
3.222e+1, 2.709e-6
3.225e+1, 2.513e-6
3.228e+1, 2.448e-6
3.231e+1, 2.421e-6
3.234e+1, 2.320e-6
3.237e+1, 2.306e-6
3.240e+1, 2.282e-6
3.243e+1, 2.248e-6
3.246e+1, 2.234e-6
3.249e+1, 2.221e-6
3.252e+1, 2.238e-6
3.255e+1, 2.242e-6
3.258e+1, 2.231e-6
3.261e+1, 2.232e-6
3.264e+1, 2.201e-6
3.267e+1, 2.216e-6
3.270e+1, 2.483e-6
3.273e+1, 2.702e-6
3.276e+1, 2.764e-6
3.279e+1, 2.756e-6
3.282e+1, 2.741e-6
3.285e+1, 2.733e-6
3.288e+1, 2.734e-6
3.291e+1, 2.661e-6
3.294e+1, 2.646e-6
3.297e+1, 2.664e-6
3.300e+1, 2.659e-6
3.303e+1, 2.552e-6
3.306e+1, 2.354e-6
3.309e+1, 2.324e-6
3.312e+1, 2.321e-6
3.315e+1, 2.331e-6
3.318e+1, 2.338e-6
3.321e+1, 2.328e-6
3.324e+1, 2.296e-6
3.327e+1, 2.287e-6
3.330e+1, 2.272e-6
3.333e+1, 2.259e-6
3.336e+1, 2.238e-6
3.339e+1, 2.233e-6
3.342e+1, 2.161e-6
3.345e+1, 2.125e-6
3.348e+1, 2.164e-6
3.351e+1, 2.416e-6
3.354e+1, 2.548e-6
3.357e+1, 2.576e-6
3.360e+1, 2.573e-6
3.363e+1, 2.574e-6
3.366e+1, 2.570e-6
3.369e+1, 2.568e-6
3.372e+1, 2.429e-6
3.375e+1, 2.367e-6
3.378e+1, 2.413e-6
3.381e+1, 2.376e-6
3.384e+1, 2.353e-6
3.387e+1, 2.330e-6
3.390e+1, 2.329e-6
3.393e+1, 2.324e-6
3.396e+1, 2.310e-6
3.399e+1, 2.302e-6
3.402e+1, 2.289e-6
3.405e+1, 2.273e-6
3.408e+1, 2.264e-6
3.411e+1, 2.237e-6
3.414e+1, 2.208e-6
3.417e+1, 2.195e-6
3.420e+1, 2.189e-6
3.423e+1, 2.180e-6
3.426e+1, 2.196e-6
3.429e+1, 2.336e-6
3.432e+1, 2.513e-6
3.435e+1, 2.580e-6
3.438e+1, 2.581e-6
3.441e+1, 2.589e-6
3.444e+1, 2.580e-6
3.447e+1, 2.564e-6
3.450e+1, 2.329e-6
3.453e+1, 2.297e-6
3.456e+1, 2.321e-6
3.459e+1, 2.310e-6
3.462e+1, 2.316e-6
3.465e+1, 2.312e-6
3.468e+1, 2.288e-6
3.471e+1, 2.290e-6
3.474e+1, 2.255e-6
3.477e+1, 2.189e-6
3.480e+1, 2.172e-6
3.483e+1, 2.178e-6
3.486e+1, 2.173e-6
3.489e+1, 2.176e-6
3.492e+1, 2.179e-6
3.495e+1, 2.113e-6
3.498e+1, 2.106e-6
3.501e+1, 2.180e-6
3.504e+1, 2.433e-6
3.507e+1, 2.529e-6
3.510e+1, 2.549e-6
3.513e+1, 2.538e-6
3.516e+1, 2.524e-6
3.519e+1, 2.512e-6
3.522e+1, 2.468e-6
3.525e+1, 2.279e-6
3.528e+1, 2.298e-6
3.531e+1, 2.303e-6
3.534e+1, 2.294e-6
3.537e+1, 2.265e-6
3.540e+1, 2.263e-6
3.543e+1, 2.248e-6
3.546e+1, 2.231e-6
3.549e+1, 2.215e-6
3.552e+1, 2.211e-6
3.555e+1, 2.199e-6
3.558e+1, 2.190e-6
3.561e+1, 2.181e-6
3.564e+1, 2.188e-6
3.567e+1, 2.183e-6
3.570e+1, 2.181e-6
3.573e+1, 2.233e-6
3.576e+1, 2.474e-6
3.579e+1, 2.518e-6
3.582e+1, 2.568e-6
3.585e+1, 2.545e-6
3.588e+1, 2.538e-6
3.591e+1, 2.539e-6
3.594e+1, 2.529e-6
3.597e+1, 2.337e-6
3.600e+1, 2.348e-6
3.603e+1, 2.344e-6
3.606e+1, 2.330e-6
3.609e+1, 2.300e-6
3.612e+1, 2.271e-6
3.615e+1, 2.246e-6
3.618e+1, 2.240e-6
3.621e+1, 2.230e-6
3.624e+1, 2.227e-6
3.627e+1, 2.225e-6
3.630e+1, 2.222e-6
3.633e+1, 2.223e-6
3.636e+1, 2.234e-6
3.639e+1, 2.235e-6
3.642e+1, 2.211e-6
3.645e+1, 2.240e-6
3.648e+1, 2.379e-6
3.651e+1, 2.554e-6
3.654e+1, 2.578e-6
3.657e+1, 2.567e-6
3.660e+1, 2.518e-6
3.663e+1, 2.508e-6
3.666e+1, 2.503e-6
3.669e+1, 2.535e-6
3.672e+1, 2.536e-6
3.675e+1, 2.552e-6
3.678e+1, 2.550e-6
3.681e+1, 2.538e-6
3.684e+1, 2.536e-6
3.687e+1, 2.474e-6
3.690e+1, 2.305e-6
3.693e+1, 2.320e-6
3.696e+1, 2.304e-6
3.699e+1, 2.312e-6
3.702e+1, 2.304e-6
3.705e+1, 2.284e-6
3.708e+1, 2.272e-6
3.711e+1, 2.237e-6
3.714e+1, 2.245e-6
3.717e+1, 2.257e-6
3.720e+1, 2.527e-6
3.723e+1, 2.526e-6
3.726e+1, 2.549e-6
3.729e+1, 2.548e-6
3.732e+1, 2.485e-6
3.735e+1, 2.485e-6
3.738e+1, 2.445e-6
3.741e+1, 2.435e-6
3.744e+1, 2.466e-6
3.747e+1, 2.465e-6
3.750e+1, 2.466e-6
3.753e+1, 2.439e-6
3.756e+1, 2.320e-6
3.759e+1, 2.308e-6
3.762e+1, 2.280e-6
3.765e+1, 2.265e-6
3.768e+1, 2.240e-6
3.771e+1, 2.232e-6
3.774e+1, 2.209e-6
3.777e+1, 2.220e-6
3.780e+1, 2.229e-6
3.783e+1, 2.224e-6
3.786e+1, 2.236e-6
3.789e+1, 2.251e-6
3.792e+1, 2.562e-6
3.795e+1, 2.529e-6
3.798e+1, 2.573e-6
3.801e+1, 2.568e-6
3.804e+1, 2.565e-6
3.807e+1, 2.568e-6
3.810e+1, 2.533e-6
3.813e+1, 2.458e-6
3.816e+1, 2.495e-6
3.819e+1, 2.501e-6
3.822e+1, 2.490e-6
3.825e+1, 2.474e-6
3.828e+1, 2.444e-6
3.831e+1, 2.418e-6
3.834e+1, 2.349e-6
3.837e+1, 2.280e-6
3.840e+1, 2.327e-6
3.843e+1, 2.322e-6
3.846e+1, 2.320e-6
3.849e+1, 2.309e-6
3.852e+1, 2.307e-6
3.855e+1, 2.249e-6
3.858e+1, 2.227e-6
3.861e+1, 2.251e-6
3.864e+1, 2.531e-6
3.867e+1, 2.562e-6
3.870e+1, 2.592e-6
3.873e+1, 2.601e-6
3.876e+1, 2.590e-6
3.879e+1, 2.513e-6
3.882e+1, 2.496e-6
3.885e+1, 2.476e-6
3.888e+1, 2.515e-6
3.891e+1, 2.514e-6
3.894e+1, 2.518e-6
3.897e+1, 2.532e-6
3.900e+1, 2.471e-6
3.903e+1, 2.401e-6
3.906e+1, 2.379e-6
3.909e+1, 2.357e-6
3.912e+1, 2.358e-6
3.915e+1, 2.333e-6
3.918e+1, 2.316e-6
3.921e+1, 2.309e-6
3.924e+1, 2.308e-6
3.927e+1, 2.309e-6
3.930e+1, 2.288e-6
3.933e+1, 2.271e-6
3.936e+1, 2.288e-6
3.939e+1, 2.549e-6
3.942e+1, 2.547e-6
3.945e+1, 2.576e-6
3.948e+1, 2.575e-6
3.951e+1, 2.570e-6
3.954e+1, 2.573e-6
3.957e+1, 2.493e-6
3.960e+1, 2.431e-6
3.963e+1, 2.451e-6
3.966e+1, 2.466e-6
3.969e+1, 2.486e-6
3.972e+1, 2.489e-6
3.975e+1, 2.323e-6
3.978e+1, 2.327e-6
3.981e+1, 2.376e-6
3.984e+1, 2.352e-6
3.987e+1, 2.339e-6
3.990e+1, 2.341e-6
3.993e+1, 2.303e-6
3.996e+1, 2.258e-6
3.999e+1, 2.253e-6
4.002e+1, 2.256e-6
4.005e+1, 2.257e-6
4.008e+1, 2.254e-6
4.011e+1, 2.356e-6
4.014e+1, 2.593e-6
4.017e+1, 2.621e-6
4.020e+1, 2.597e-6
4.023e+1, 2.591e-6
4.026e+1, 2.590e-6
4.029e+1, 2.583e-6
4.032e+1, 2.499e-6
4.035e+1, 2.509e-6
4.038e+1, 2.518e-6
4.041e+1, 2.515e-6
4.044e+1, 2.518e-6
4.047e+1, 2.489e-6
4.050e+1, 2.348e-6
4.053e+1, 2.344e-6
4.056e+1, 2.350e-6
4.059e+1, 2.330e-6
4.062e+1, 2.318e-6
4.065e+1, 2.282e-6
4.068e+1, 2.256e-6
4.071e+1, 2.252e-6
4.074e+1, 2.244e-6
4.077e+1, 2.225e-6
4.080e+1, 2.209e-6
4.083e+1, 2.204e-6
4.086e+1, 2.218e-6
4.089e+1, 2.535e-6
4.092e+1, 2.530e-6
4.095e+1, 2.642e-6
4.098e+1, 2.640e-6
4.101e+1, 2.631e-6
4.104e+1, 2.632e-6
4.107e+1, 2.589e-6
4.110e+1, 2.419e-6
4.113e+1, 2.446e-6
4.116e+1, 2.460e-6
4.119e+1, 2.447e-6
4.122e+1, 2.415e-6
4.125e+1, 2.304e-6
4.128e+1, 2.210e-6
4.131e+1, 2.210e-6
4.134e+1, 2.177e-6
4.137e+1, 2.190e-6
4.140e+1, 2.199e-6
4.143e+1, 2.219e-6
4.146e+1, 2.236e-6
4.149e+1, 2.231e-6
4.152e+1, 2.227e-6
4.155e+1, 2.209e-6
4.158e+1, 2.181e-6
4.161e+1, 2.170e-6
4.164e+1, 2.404e-6
4.167e+1, 2.494e-6
4.170e+1, 2.505e-6
4.173e+1, 2.489e-6
4.176e+1, 2.484e-6
4.179e+1, 2.474e-6
4.182e+1, 2.460e-6
4.185e+1, 2.371e-6
4.188e+1, 2.308e-6
4.191e+1, 2.377e-6
4.194e+1, 2.354e-6
4.197e+1, 2.399e-6
4.200e+1, 2.212e-6
4.203e+1, 2.141e-6
4.206e+1, 2.084e-6
4.209e+1, 2.066e-6
4.212e+1, 2.072e-6
4.215e+1, 2.095e-6
4.218e+1, 2.108e-6
4.221e+1, 2.103e-6
4.224e+1, 2.104e-6
4.227e+1, 2.106e-6
4.230e+1, 2.119e-6
4.233e+1, 2.132e-6
4.236e+1, 2.250e-6
4.239e+1, 2.459e-6
4.242e+1, 2.518e-6
4.245e+1, 2.466e-6
4.248e+1, 2.450e-6
4.251e+1, 2.434e-6
4.254e+1, 2.417e-6
4.257e+1, 2.372e-6
4.260e+1, 2.392e-6
4.263e+1, 2.397e-6
4.266e+1, 2.394e-6
4.269e+1, 2.392e-6
4.272e+1, 2.388e-6
4.275e+1, 2.374e-6
4.278e+1, 2.249e-6
4.281e+1, 2.146e-6
4.284e+1, 2.149e-6
4.287e+1, 2.114e-6
4.290e+1, 2.085e-6
4.293e+1, 2.067e-6
4.296e+1, 2.080e-6
4.299e+1, 2.084e-6
4.302e+1, 2.078e-6
4.305e+1, 2.096e-6
4.308e+1, 2.135e-6
4.311e+1, 2.451e-6
4.314e+1, 2.609e-6
4.317e+1, 2.486e-6
4.320e+1, 2.453e-6
4.323e+1, 2.443e-6
4.326e+1, 2.429e-6
4.329e+1, 2.414e-6
4.332e+1, 2.389e-6
4.335e+1, 2.408e-6
4.338e+1, 2.423e-6
4.341e+1, 2.469e-6
4.344e+1, 2.547e-6
4.347e+1, 2.446e-6
4.350e+1, 2.326e-6
4.353e+1, 2.247e-6
4.356e+1, 2.229e-6
4.359e+1, 2.227e-6
4.362e+1, 2.188e-6
4.365e+1, 2.171e-6
4.368e+1, 2.175e-6
4.371e+1, 2.193e-6
4.374e+1, 2.193e-6
4.377e+1, 2.132e-6
4.380e+1, 2.131e-6
4.383e+1, 2.195e-6
4.386e+1, 2.483e-6
4.389e+1, 2.532e-6
4.392e+1, 2.470e-6
4.395e+1, 2.453e-6
4.398e+1, 2.448e-6
4.401e+1, 2.435e-6
4.404e+1, 2.375e-6
4.407e+1, 2.385e-6
4.410e+1, 2.386e-6
4.413e+1, 2.387e-6
4.416e+1, 2.387e-6
4.419e+1, 2.390e-6
4.422e+1, 2.372e-6
4.425e+1, 2.338e-6
4.428e+1, 2.268e-6
4.431e+1, 2.230e-6
4.434e+1, 2.185e-6
4.437e+1, 2.138e-6
4.440e+1, 2.144e-6
4.443e+1, 2.144e-6
4.446e+1, 2.131e-6
4.449e+1, 2.072e-6
4.452e+1, 2.093e-6
4.455e+1, 2.345e-6
4.458e+1, 2.438e-6
4.461e+1, 2.465e-6
4.464e+1, 2.453e-6
4.467e+1, 2.463e-6
4.470e+1, 2.473e-6
4.473e+1, 2.479e-6
4.476e+1, 2.471e-6
4.479e+1, 2.475e-6
4.482e+1, 2.473e-6
4.485e+1, 2.483e-6
4.488e+1, 2.463e-6
4.491e+1, 2.314e-6
4.494e+1, 2.189e-6
4.497e+1, 2.195e-6
4.500e+1, 2.190e-6
4.503e+1, 2.187e-6
4.506e+1, 2.156e-6
4.509e+1, 2.148e-6
4.512e+1, 2.136e-6
4.515e+1, 2.130e-6
4.518e+1, 2.074e-6
4.521e+1, 2.093e-6
4.524e+1, 2.260e-6
4.527e+1, 2.459e-6
4.530e+1, 2.510e-6
4.533e+1, 2.498e-6
4.536e+1, 2.507e-6
4.539e+1, 2.507e-6
4.542e+1, 2.518e-6
4.545e+1, 2.446e-6
4.548e+1, 2.454e-6
4.551e+1, 2.458e-6
4.554e+1, 2.453e-6
4.557e+1, 2.466e-6
4.560e+1, 2.495e-6
4.563e+1, 2.398e-6
4.566e+1, 2.210e-6
4.569e+1, 2.202e-6
4.572e+1, 2.212e-6
4.575e+1, 2.192e-6
4.578e+1, 2.169e-6
4.581e+1, 2.174e-6
4.584e+1, 2.167e-6
4.587e+1, 2.146e-6
4.590e+1, 2.143e-6
4.593e+1, 2.236e-6
4.596e+1, 2.512e-6
4.599e+1, 2.524e-6
4.602e+1, 2.500e-6
4.605e+1, 2.485e-6
4.608e+1, 2.455e-6
4.611e+1, 2.458e-6
4.614e+1, 2.403e-6
4.617e+1, 2.437e-6
4.620e+1, 2.434e-6
4.623e+1, 2.435e-6
4.626e+1, 2.444e-6
4.629e+1, 2.454e-6
4.632e+1, 2.395e-6
4.635e+1, 2.325e-6
4.638e+1, 2.253e-6
4.641e+1, 2.222e-6
4.644e+1, 2.211e-6
4.647e+1, 2.183e-6
4.650e+1, 2.187e-6
4.653e+1, 2.141e-6
4.656e+1, 2.123e-6
4.659e+1, 2.186e-6
4.662e+1, 2.487e-6
4.665e+1, 2.481e-6
4.668e+1, 2.467e-6
4.671e+1, 2.452e-6
4.674e+1, 2.447e-6
4.677e+1, 2.466e-6
4.680e+1, 2.455e-6
4.683e+1, 2.384e-6
4.686e+1, 2.400e-6
4.689e+1, 2.406e-6
4.692e+1, 2.419e-6
4.695e+1, 2.398e-6
4.698e+1, 2.370e-6
4.701e+1, 2.372e-6
4.704e+1, 2.335e-6
4.707e+1, 2.287e-6
4.710e+1, 2.255e-6
4.713e+1, 2.196e-6
4.716e+1, 2.195e-6
4.719e+1, 2.172e-6
4.722e+1, 2.130e-6
4.725e+1, 2.173e-6
4.728e+1, 2.512e-6
4.731e+1, 2.542e-6
4.734e+1, 2.539e-6
4.737e+1, 2.515e-6
4.740e+1, 2.497e-6
4.743e+1, 2.504e-6
4.746e+1, 2.503e-6
4.749e+1, 2.537e-6
4.752e+1, 2.601e-6
4.755e+1, 2.606e-6
4.758e+1, 2.586e-6
4.761e+1, 2.603e-6
4.764e+1, 2.510e-6
4.767e+1, 2.457e-6
4.770e+1, 2.413e-6
4.773e+1, 2.389e-6
4.776e+1, 2.337e-6
4.779e+1, 2.238e-6
4.782e+1, 2.229e-6
4.785e+1, 2.182e-6
4.788e+1, 2.156e-6
4.791e+1, 2.156e-6
4.794e+1, 2.250e-6
4.797e+1, 2.554e-6
4.800e+1, 2.594e-6
4.803e+1, 2.557e-6
4.806e+1, 2.548e-6
4.809e+1, 2.553e-6
4.812e+1, 2.553e-6
4.815e+1, 2.550e-6
4.818e+1, 2.530e-6
4.821e+1, 2.564e-6
4.824e+1, 2.573e-6
4.827e+1, 2.607e-6
4.830e+1, 2.569e-6
4.833e+1, 2.531e-6
4.836e+1, 2.484e-6
4.839e+1, 2.457e-6
4.842e+1, 2.442e-6
4.845e+1, 2.426e-6
4.848e+1, 2.363e-6
4.851e+1, 2.315e-6
4.854e+1, 2.327e-6
4.857e+1, 2.232e-6
4.860e+1, 2.220e-6
4.863e+1, 2.385e-6
4.866e+1, 2.592e-6
4.869e+1, 2.508e-6
4.872e+1, 2.420e-6
4.875e+1, 2.404e-6
4.878e+1, 2.392e-6
4.881e+1, 2.383e-6
4.884e+1, 2.412e-6
4.887e+1, 2.466e-6
4.890e+1, 2.473e-6
4.893e+1, 2.473e-6
4.896e+1, 2.484e-6
4.899e+1, 2.444e-6
4.902e+1, 2.417e-6
4.905e+1, 2.403e-6
4.908e+1, 2.399e-6
4.911e+1, 2.404e-6
4.914e+1, 2.392e-6
4.917e+1, 2.405e-6
4.920e+1, 2.311e-6
4.923e+1, 2.275e-6
4.926e+1, 2.231e-6
4.929e+1, 2.279e-6
4.932e+1, 2.488e-6
4.935e+1, 2.517e-6
4.938e+1, 2.491e-6
4.941e+1, 2.505e-6
4.944e+1, 2.503e-6
4.947e+1, 2.501e-6
4.950e+1, 2.489e-6
4.953e+1, 2.514e-6
4.956e+1, 2.535e-6
4.959e+1, 2.526e-6
4.962e+1, 2.484e-6
4.965e+1, 2.480e-6
4.968e+1, 2.470e-6
4.971e+1, 2.450e-6
4.974e+1, 2.441e-6
4.977e+1, 2.333e-6
4.980e+1, 2.309e-6
4.983e+1, 2.321e-6
4.986e+1, 2.323e-6
4.989e+1, 2.323e-6
4.992e+1, 2.206e-6
4.995e+1, 2.202e-6
4.998e+1, 2.419e-6
5.001e+1, 2.588e-6
5.004e+1, 2.531e-6
5.007e+1, 2.527e-6
5.010e+1, 2.514e-6
5.013e+1, 2.514e-6
5.016e+1, 2.514e-6
5.019e+1, 2.517e-6
5.022e+1, 2.542e-6
5.025e+1, 2.529e-6
5.028e+1, 2.528e-6
5.031e+1, 2.543e-6
5.034e+1, 2.541e-6
5.037e+1, 2.478e-6
5.040e+1, 2.451e-6
5.043e+1, 2.362e-6
5.046e+1, 2.281e-6
5.049e+1, 2.265e-6
5.052e+1, 2.265e-6
5.055e+1, 2.229e-6
5.058e+1, 2.261e-6
5.061e+1, 2.171e-6
5.064e+1, 2.158e-6
5.067e+1, 2.257e-6
5.070e+1, 2.553e-6
5.073e+1, 2.531e-6
5.076e+1, 2.487e-6
5.079e+1, 2.473e-6
5.082e+1, 2.447e-6
5.085e+1, 2.448e-6
5.088e+1, 2.443e-6
5.091e+1, 2.479e-6
5.094e+1, 2.487e-6
5.097e+1, 2.499e-6
5.100e+1, 2.516e-6
5.103e+1, 2.536e-6
5.106e+1, 2.487e-6
5.109e+1, 2.474e-6
5.112e+1, 2.428e-6
5.115e+1, 2.429e-6
5.118e+1, 2.350e-6
5.121e+1, 2.252e-6
5.124e+1, 2.244e-6
5.127e+1, 2.236e-6
5.130e+1, 2.245e-6
5.133e+1, 2.251e-6
5.136e+1, 2.413e-6
5.139e+1, 2.462e-6
5.142e+1, 2.440e-6
5.145e+1, 2.441e-6
5.148e+1, 2.445e-6
5.151e+1, 2.442e-6
5.154e+1, 2.418e-6
5.157e+1, 2.399e-6
5.160e+1, 2.404e-6
5.163e+1, 2.407e-6
5.166e+1, 2.416e-6
5.169e+1, 2.408e-6
5.172e+1, 2.397e-6
5.175e+1, 2.318e-6
5.178e+1, 2.260e-6
5.181e+1, 2.198e-6
5.184e+1, 2.163e-6
5.187e+1, 2.135e-6
5.190e+1, 2.119e-6
5.193e+1, 2.119e-6
5.196e+1, 2.108e-6
5.199e+1, 2.121e-6
5.202e+1, 2.149e-6
5.205e+1, 2.492e-6
5.208e+1, 2.551e-6
5.211e+1, 2.549e-6
5.214e+1, 2.570e-6
5.217e+1, 2.579e-6
5.220e+1, 2.581e-6
5.223e+1, 2.581e-6
5.226e+1, 2.598e-6
5.229e+1, 2.577e-6
5.232e+1, 2.548e-6
5.235e+1, 2.555e-6
5.238e+1, 2.473e-6
5.241e+1, 2.304e-6
5.244e+1, 2.280e-6
5.247e+1, 2.255e-6
5.250e+1, 2.240e-6
5.253e+1, 2.189e-6
5.256e+1, 2.145e-6
5.259e+1, 2.150e-6
5.262e+1, 2.148e-6
5.265e+1, 2.125e-6
5.268e+1, 2.147e-6
5.271e+1, 2.393e-6
5.274e+1, 2.565e-6
5.277e+1, 2.578e-6
5.280e+1, 2.552e-6
5.283e+1, 2.550e-6
5.286e+1, 2.555e-6
5.289e+1, 2.561e-6
5.292e+1, 2.564e-6
5.295e+1, 2.580e-6
5.298e+1, 2.583e-6
5.301e+1, 2.579e-6
5.304e+1, 2.546e-6
5.307e+1, 2.416e-6
5.310e+1, 2.332e-6
5.313e+1, 2.298e-6
5.316e+1, 2.239e-6
5.319e+1, 2.212e-6
5.322e+1, 2.192e-6
5.325e+1, 2.176e-6
5.328e+1, 2.169e-6
5.331e+1, 2.152e-6
5.334e+1, 2.142e-6
5.337e+1, 2.150e-6
5.340e+1, 2.436e-6
5.343e+1, 2.642e-6
5.346e+1, 2.590e-6
5.349e+1, 2.566e-6
5.352e+1, 2.567e-6
5.355e+1, 2.560e-6
5.358e+1, 2.572e-6
5.361e+1, 2.524e-6
5.364e+1, 2.592e-6
5.367e+1, 2.590e-6
5.370e+1, 2.582e-6
5.373e+1, 2.595e-6
5.376e+1, 2.537e-6
5.379e+1, 2.479e-6
5.382e+1, 2.385e-6
5.385e+1, 2.364e-6
5.388e+1, 2.351e-6
5.391e+1, 2.319e-6
5.394e+1, 2.280e-6
5.397e+1, 2.251e-6
5.400e+1, 2.225e-6
5.403e+1, 2.254e-6
5.406e+1, 2.278e-6
5.409e+1, 2.539e-6
5.412e+1, 2.527e-6
5.415e+1, 2.499e-6
5.418e+1, 2.441e-6
5.421e+1, 2.432e-6
5.424e+1, 2.440e-6
5.427e+1, 2.419e-6
5.430e+1, 2.429e-6
5.433e+1, 2.430e-6
5.436e+1, 2.433e-6
5.439e+1, 2.465e-6
5.442e+1, 2.444e-6
5.445e+1, 2.337e-6
5.448e+1, 2.329e-6
5.451e+1, 2.328e-6
5.454e+1, 2.331e-6
5.457e+1, 2.308e-6
5.460e+1, 2.302e-6
5.463e+1, 2.312e-6
5.466e+1, 2.308e-6
5.469e+1, 2.250e-6
5.472e+1, 2.222e-6
5.475e+1, 2.418e-6
5.478e+1, 2.424e-6
5.481e+1, 2.431e-6
5.484e+1, 2.428e-6
5.487e+1, 2.427e-6
5.490e+1, 2.429e-6
5.493e+1, 2.428e-6
5.496e+1, 2.415e-6
5.499e+1, 2.445e-6
5.502e+1, 2.491e-6
5.505e+1, 2.490e-6
5.508e+1, 2.391e-6
5.511e+1, 2.289e-6
5.514e+1, 2.279e-6
5.517e+1, 2.124e-6
5.520e+1, 2.109e-6
5.523e+1, 2.099e-6
5.526e+1, 2.090e-6
5.529e+1, 2.086e-6
5.532e+1, 2.087e-6
5.535e+1, 2.073e-6
5.538e+1, 2.085e-6
5.541e+1, 2.150e-6
5.544e+1, 2.450e-6
5.547e+1, 2.486e-6
5.550e+1, 2.486e-6
5.553e+1, 2.489e-6
5.556e+1, 2.531e-6
5.559e+1, 2.549e-6
5.562e+1, 2.534e-6
5.565e+1, 2.519e-6
5.568e+1, 2.526e-6
5.571e+1, 2.525e-6
5.574e+1, 2.526e-6
5.577e+1, 2.470e-6
5.580e+1, 2.347e-6
5.583e+1, 2.314e-6
5.586e+1, 2.316e-6
5.589e+1, 2.323e-6
5.592e+1, 2.327e-6
5.595e+1, 2.263e-6
5.598e+1, 2.256e-6
5.601e+1, 2.266e-6
5.604e+1, 2.237e-6
5.607e+1, 2.245e-6
5.610e+1, 2.415e-6
5.613e+1, 2.528e-6
5.616e+1, 2.485e-6
5.619e+1, 2.461e-6
5.622e+1, 2.412e-6
5.625e+1, 2.409e-6
5.628e+1, 2.412e-6
5.631e+1, 2.382e-6
5.634e+1, 2.395e-6
5.637e+1, 2.409e-6
5.640e+1, 2.414e-6
5.643e+1, 2.409e-6
5.646e+1, 2.416e-6
5.649e+1, 2.367e-6
5.652e+1, 2.306e-6
5.655e+1, 2.284e-6
5.658e+1, 2.252e-6
5.661e+1, 2.276e-6
5.664e+1, 2.273e-6
5.667e+1, 2.274e-6
5.670e+1, 2.206e-6
5.673e+1, 2.246e-6
5.676e+1, 2.275e-6
5.679e+1, 2.441e-6
5.682e+1, 2.414e-6
5.685e+1, 2.424e-6
5.688e+1, 2.434e-6
5.691e+1, 2.436e-6
5.694e+1, 2.402e-6
5.697e+1, 2.383e-6
5.700e+1, 2.393e-6
5.703e+1, 2.399e-6
5.706e+1, 2.420e-6
5.709e+1, 2.418e-6
5.712e+1, 2.390e-6
5.715e+1, 2.324e-6
5.718e+1, 2.316e-6
5.721e+1, 2.321e-6
5.724e+1, 2.331e-6
5.727e+1, 2.350e-6
5.730e+1, 2.290e-6
5.733e+1, 2.238e-6
5.736e+1, 2.217e-6
5.739e+1, 2.203e-6
5.742e+1, 2.261e-6
5.745e+1, 2.544e-6
5.748e+1, 2.548e-6
5.751e+1, 2.560e-6
5.754e+1, 2.567e-6
5.757e+1, 2.561e-6
5.760e+1, 2.559e-6
5.763e+1, 2.556e-6
5.766e+1, 2.521e-6
5.769e+1, 2.551e-6
5.772e+1, 2.550e-6
5.775e+1, 2.548e-6
5.778e+1, 2.509e-6
5.781e+1, 2.486e-6
5.784e+1, 2.483e-6
5.787e+1, 2.432e-6
5.790e+1, 2.370e-6
5.793e+1, 2.381e-6
5.796e+1, 2.365e-6
5.799e+1, 2.361e-6
5.802e+1, 2.309e-6
5.805e+1, 2.304e-6
5.808e+1, 2.318e-6
5.811e+1, 2.519e-6
5.814e+1, 2.525e-6
5.817e+1, 2.523e-6
5.820e+1, 2.497e-6
5.823e+1, 2.513e-6
5.826e+1, 2.469e-6
5.829e+1, 2.449e-6
5.832e+1, 2.459e-6
5.835e+1, 2.467e-6
5.838e+1, 2.463e-6
5.841e+1, 2.466e-6
5.844e+1, 2.467e-6
5.847e+1, 2.450e-6
5.850e+1, 2.432e-6
5.853e+1, 2.429e-6
5.856e+1, 2.381e-6
5.859e+1, 2.353e-6
5.862e+1, 2.304e-6
5.865e+1, 2.281e-6
5.868e+1, 2.275e-6
5.871e+1, 2.264e-6
5.874e+1, 2.244e-6
5.877e+1, 2.276e-6
5.880e+1, 2.440e-6
5.883e+1, 2.350e-6
5.886e+1, 2.319e-6
5.889e+1, 2.386e-6
5.892e+1, 2.406e-6
5.895e+1, 2.455e-6
5.898e+1, 2.411e-6
5.901e+1, 2.360e-6
5.904e+1, 2.368e-6
5.907e+1, 2.384e-6
5.910e+1, 2.392e-6
5.913e+1, 2.406e-6
5.916e+1, 2.457e-6
5.919e+1, 2.435e-6
5.922e+1, 2.356e-6
5.925e+1, 2.317e-6
5.928e+1, 2.283e-6
5.931e+1, 2.294e-6
5.934e+1, 2.318e-6
5.937e+1, 2.294e-6
5.940e+1, 2.244e-6
5.943e+1, 2.249e-6
5.946e+1, 2.524e-6
5.949e+1, 2.543e-6
5.952e+1, 2.491e-6
5.955e+1, 2.475e-6
5.958e+1, 2.474e-6
5.961e+1, 2.478e-6
5.964e+1, 2.524e-6
5.967e+1, 2.525e-6
5.970e+1, 2.529e-6
5.973e+1, 2.514e-6
5.976e+1, 2.553e-6
5.979e+1, 2.538e-6
5.982e+1, 2.422e-6
5.985e+1, 2.352e-6
5.988e+1, 2.335e-6
5.991e+1, 2.353e-6
5.994e+1, 2.339e-6
5.997e+1, 2.297e-6
6.000e+1, 2.271e-6
6.003e+1, 2.292e-6
6.006e+1, 2.268e-6
6.009e+1, 2.272e-6
6.012e+1, 2.348e-6
6.015e+1, 2.604e-6
6.018e+1, 2.589e-6
6.021e+1, 2.579e-6
6.024e+1, 2.571e-6
6.027e+1, 2.579e-6
6.030e+1, 2.579e-6
6.033e+1, 2.582e-6
6.036e+1, 2.592e-6
6.039e+1, 2.597e-6
6.042e+1, 2.599e-6
6.045e+1, 2.607e-6
6.048e+1, 2.575e-6
6.051e+1, 2.443e-6
6.054e+1, 2.419e-6
6.057e+1, 2.398e-6
6.060e+1, 2.371e-6
6.063e+1, 2.376e-6
6.066e+1, 2.371e-6
6.069e+1, 2.375e-6
6.072e+1, 2.383e-6
6.075e+1, 2.356e-6
6.078e+1, 2.368e-6
6.081e+1, 2.535e-6
6.084e+1, 2.586e-6
6.087e+1, 2.516e-6
6.090e+1, 2.506e-6
6.093e+1, 2.497e-6
6.096e+1, 2.500e-6
6.099e+1, 2.508e-6
6.102e+1, 2.547e-6
6.105e+1, 2.575e-6
6.108e+1, 2.579e-6
6.111e+1, 2.590e-6
6.114e+1, 2.565e-6
6.117e+1, 2.565e-6
6.120e+1, 2.424e-6
6.123e+1, 2.408e-6
6.126e+1, 2.386e-6
6.129e+1, 2.373e-6
6.132e+1, 2.388e-6
6.135e+1, 2.360e-6
6.138e+1, 2.337e-6
6.141e+1, 2.292e-6
6.144e+1, 2.325e-6
6.147e+1, 2.547e-6
6.150e+1, 2.629e-6
6.153e+1, 2.594e-6
6.156e+1, 2.562e-6
6.159e+1, 2.586e-6
6.162e+1, 2.597e-6
6.165e+1, 2.585e-6
6.168e+1, 2.606e-6
6.171e+1, 2.605e-6
6.174e+1, 2.603e-6
6.177e+1, 2.610e-6
6.180e+1, 2.616e-6
6.183e+1, 2.590e-6
6.186e+1, 2.483e-6
6.189e+1, 2.470e-6
6.192e+1, 2.462e-6
6.195e+1, 2.460e-6
6.198e+1, 2.457e-6
6.201e+1, 2.424e-6
6.204e+1, 2.420e-6
6.207e+1, 2.377e-6
6.210e+1, 2.416e-6
6.213e+1, 2.506e-6
6.216e+1, 2.671e-6
6.219e+1, 2.650e-6
6.222e+1, 2.619e-6
6.225e+1, 2.616e-6
6.228e+1, 2.632e-6
6.231e+1, 2.619e-6
6.234e+1, 2.614e-6
6.237e+1, 2.633e-6
6.240e+1, 2.644e-6
6.243e+1, 2.637e-6
6.246e+1, 2.629e-6
6.249e+1, 2.630e-6
6.252e+1, 2.491e-6
6.255e+1, 2.482e-6
6.258e+1, 2.482e-6
6.261e+1, 2.484e-6
6.264e+1, 2.447e-6
6.267e+1, 2.415e-6
6.270e+1, 2.396e-6
6.273e+1, 2.371e-6
6.276e+1, 2.382e-6
6.279e+1, 2.402e-6
6.282e+1, 2.533e-6
6.285e+1, 2.667e-6
6.288e+1, 2.619e-6
6.291e+1, 2.577e-6
6.294e+1, 2.565e-6
6.297e+1, 2.568e-6
6.300e+1, 2.562e-6
6.303e+1, 2.568e-6
6.306e+1, 2.609e-6
6.309e+1, 2.619e-6
6.312e+1, 2.620e-6
6.315e+1, 2.603e-6
6.318e+1, 2.574e-6
6.321e+1, 2.530e-6
6.324e+1, 2.459e-6
6.327e+1, 2.451e-6
6.330e+1, 2.451e-6
6.333e+1, 2.446e-6
6.336e+1, 2.455e-6
6.339e+1, 2.452e-6
6.342e+1, 2.434e-6
6.345e+1, 2.464e-6
6.348e+1, 2.584e-6
6.351e+1, 2.664e-6
6.354e+1, 2.596e-6
6.357e+1, 2.581e-6
6.360e+1, 2.581e-6
6.363e+1, 2.575e-6
6.366e+1, 2.582e-6
6.369e+1, 2.585e-6
6.372e+1, 2.633e-6
6.375e+1, 2.626e-6
6.378e+1, 2.609e-6
6.381e+1, 2.612e-6
6.384e+1, 2.512e-6
6.387e+1, 2.414e-6
6.390e+1, 2.424e-6
6.393e+1, 2.452e-6
6.396e+1, 2.444e-6
6.399e+1, 2.408e-6
6.402e+1, 2.393e-6
6.405e+1, 2.406e-6
6.408e+1, 2.410e-6
6.411e+1, 2.412e-6
6.414e+1, 2.417e-6
6.417e+1, 2.606e-6
6.420e+1, 2.652e-6
6.423e+1, 2.617e-6
6.426e+1, 2.599e-6
6.429e+1, 2.600e-6
6.432e+1, 2.629e-6
6.435e+1, 2.617e-6
6.438e+1, 2.596e-6
6.441e+1, 2.601e-6
6.444e+1, 2.584e-6
6.447e+1, 2.582e-6
6.450e+1, 2.641e-6
6.453e+1, 2.577e-6
6.456e+1, 2.573e-6
6.459e+1, 2.606e-6
6.462e+1, 2.619e-6
6.465e+1, 2.586e-6
6.468e+1, 2.585e-6
6.471e+1, 2.584e-6
6.474e+1, 2.567e-6
6.477e+1, 2.599e-6
6.480e+1, 2.574e-6
6.483e+1, 2.596e-6
6.486e+1, 2.629e-6
6.489e+1, 2.663e-6
6.492e+1, 2.628e-6
6.495e+1, 2.654e-6
6.498e+1, 2.657e-6
6.501e+1, 2.656e-6
6.504e+1, 2.634e-6
6.507e+1, 2.608e-6
6.510e+1, 2.616e-6
6.513e+1, 2.618e-6
6.516e+1, 2.624e-6
6.519e+1, 2.627e-6
6.522e+1, 2.612e-6
6.525e+1, 2.594e-6
6.528e+1, 2.593e-6
6.531e+1, 2.589e-6
6.534e+1, 2.587e-6
6.537e+1, 2.570e-6
6.540e+1, 2.580e-6
6.543e+1, 2.588e-6
6.546e+1, 2.553e-6
6.549e+1, 2.423e-6
6.552e+1, 2.401e-6
6.555e+1, 2.526e-6
6.558e+1, 2.532e-6
6.561e+1, 2.595e-6
6.564e+1, 2.552e-6
6.567e+1, 2.529e-6
6.570e+1, 2.523e-6
6.573e+1, 2.498e-6
6.576e+1, 2.386e-6
6.579e+1, 2.416e-6
6.582e+1, 2.434e-6
6.585e+1, 2.412e-6
6.588e+1, 2.411e-6
6.591e+1, 2.400e-6
6.594e+1, 2.396e-6
6.597e+1, 2.347e-6
6.600e+1, 2.352e-6
6.603e+1, 2.368e-6
6.606e+1, 2.340e-6
6.609e+1, 2.334e-6
6.612e+1, 2.330e-6
6.615e+1, 2.321e-6
6.618e+1, 2.321e-6
6.621e+1, 2.442e-6
6.624e+1, 2.467e-6
6.627e+1, 2.491e-6
6.630e+1, 2.524e-6
6.633e+1, 2.520e-6
6.636e+1, 2.509e-6
6.639e+1, 2.488e-6
6.642e+1, 2.408e-6
6.645e+1, 2.444e-6
6.648e+1, 2.443e-6
6.651e+1, 2.457e-6
6.654e+1, 2.454e-6
6.657e+1, 2.448e-6
6.660e+1, 2.446e-6
6.663e+1, 2.465e-6
6.666e+1, 2.399e-6
6.669e+1, 2.394e-6
6.672e+1, 2.399e-6
6.675e+1, 2.416e-6
6.678e+1, 2.411e-6
6.681e+1, 2.370e-6
6.684e+1, 2.301e-6
6.687e+1, 2.369e-6
6.690e+1, 2.440e-6
6.693e+1, 2.520e-6
6.696e+1, 2.554e-6
6.699e+1, 2.521e-6
6.702e+1, 2.511e-6
6.705e+1, 2.481e-6
6.708e+1, 2.422e-6
6.711e+1, 2.330e-6
6.714e+1, 2.332e-6
6.717e+1, 2.318e-6
6.720e+1, 2.333e-6
6.723e+1, 2.261e-6
6.726e+1, 2.183e-6
6.729e+1, 2.199e-6
6.732e+1, 2.233e-6
6.735e+1, 2.234e-6
6.738e+1, 2.222e-6
6.741e+1, 2.161e-6
6.744e+1, 2.137e-6
6.747e+1, 2.103e-6
6.750e+1, 2.091e-6
6.753e+1, 2.163e-6
6.756e+1, 2.303e-6
6.759e+1, 2.432e-6
6.762e+1, 2.418e-6
6.765e+1, 2.393e-6
6.768e+1, 2.386e-6
6.771e+1, 2.381e-6
6.774e+1, 2.250e-6
6.777e+1, 2.229e-6
6.780e+1, 2.237e-6
6.783e+1, 2.242e-6
6.786e+1, 2.273e-6
6.789e+1, 2.272e-6
6.792e+1, 2.258e-6
6.795e+1, 2.279e-6
6.798e+1, 2.284e-6
6.801e+1, 2.278e-6
6.804e+1, 2.237e-6
6.807e+1, 2.255e-6
6.810e+1, 2.211e-6
6.813e+1, 2.198e-6
6.816e+1, 2.210e-6
6.819e+1, 2.221e-6
6.822e+1, 2.375e-6
6.825e+1, 2.373e-6
6.828e+1, 2.360e-6
6.831e+1, 2.353e-6
6.834e+1, 2.354e-6
6.837e+1, 2.246e-6
6.840e+1, 2.200e-6
6.843e+1, 2.220e-6
6.846e+1, 2.206e-6
6.849e+1, 2.216e-6
6.852e+1, 2.219e-6
6.855e+1, 2.199e-6
6.858e+1, 2.242e-6
6.861e+1, 2.196e-6
6.864e+1, 2.154e-6
6.867e+1, 2.153e-6
6.870e+1, 2.146e-6
6.873e+1, 2.139e-6
6.876e+1, 2.127e-6
6.879e+1, 2.142e-6
6.882e+1, 2.212e-6
6.885e+1, 2.406e-6
6.888e+1, 2.487e-6
6.891e+1, 2.480e-6
6.894e+1, 2.457e-6
6.897e+1, 2.460e-6
6.900e+1, 2.367e-6
6.903e+1, 2.251e-6
6.906e+1, 2.263e-6
6.909e+1, 2.258e-6
6.912e+1, 2.257e-6
6.915e+1, 2.249e-6
6.918e+1, 2.225e-6
6.921e+1, 2.207e-6
6.924e+1, 2.228e-6
6.927e+1, 2.238e-6
6.930e+1, 2.234e-6
6.933e+1, 2.222e-6
6.936e+1, 2.221e-6
6.939e+1, 2.188e-6
6.942e+1, 2.181e-6
6.945e+1, 2.200e-6
6.948e+1, 2.362e-6
6.951e+1, 2.493e-6
6.954e+1, 2.491e-6
6.957e+1, 2.458e-6
6.960e+1, 2.456e-6
6.963e+1, 2.451e-6
6.966e+1, 2.355e-6
6.969e+1, 2.337e-6
6.972e+1, 2.346e-6
6.975e+1, 2.358e-6
6.978e+1, 2.362e-6
6.981e+1, 2.316e-6
6.984e+1, 2.268e-6
6.987e+1, 2.231e-6
6.990e+1, 2.217e-6
6.993e+1, 2.221e-6
6.996e+1, 2.226e-6
6.999e+1, 2.234e-6
7.002e+1, 2.230e-6
7.005e+1, 2.205e-6
7.008e+1, 2.196e-6
7.011e+1, 2.221e-6
7.014e+1, 2.407e-6
7.017e+1, 2.475e-6
7.020e+1, 2.464e-6
7.023e+1, 2.475e-6
7.026e+1, 2.472e-6
7.029e+1, 2.473e-6
7.032e+1, 2.355e-6
7.035e+1, 2.317e-6
7.038e+1, 2.332e-6
7.041e+1, 2.347e-6
7.044e+1, 2.371e-6
7.047e+1, 2.371e-6
7.050e+1, 2.321e-6
7.053e+1, 2.246e-6
7.056e+1, 2.222e-6
7.059e+1, 2.192e-6
7.062e+1, 2.143e-6
7.065e+1, 2.147e-6
7.068e+1, 2.148e-6
7.071e+1, 2.137e-6
7.074e+1, 2.140e-6
7.077e+1, 2.151e-6
7.080e+1, 2.387e-6
7.083e+1, 2.454e-6
7.086e+1, 2.426e-6
7.089e+1, 2.412e-6
7.092e+1, 2.415e-6
7.095e+1, 2.406e-6
7.098e+1, 2.294e-6
7.101e+1, 2.276e-6
7.104e+1, 2.288e-6
7.107e+1, 2.301e-6
7.110e+1, 2.301e-6
7.113e+1, 2.352e-6
7.116e+1, 2.316e-6
7.119e+1, 2.282e-6
7.122e+1, 2.274e-6
7.125e+1, 2.273e-6
7.128e+1, 2.284e-6
7.131e+1, 2.213e-6
7.134e+1, 2.153e-6
7.137e+1, 2.133e-6
7.140e+1, 2.135e-6
7.143e+1, 2.177e-6
7.146e+1, 2.435e-6
7.149e+1, 2.431e-6
7.152e+1, 2.423e-6
7.155e+1, 2.410e-6
7.158e+1, 2.430e-6
7.161e+1, 2.437e-6
7.164e+1, 2.315e-6
7.167e+1, 2.314e-6
7.170e+1, 2.335e-6
7.173e+1, 2.336e-6
7.176e+1, 2.336e-6
7.179e+1, 2.313e-6
7.182e+1, 2.274e-6
7.185e+1, 2.220e-6
7.188e+1, 2.226e-6
7.191e+1, 2.167e-6
7.194e+1, 2.137e-6
7.197e+1, 2.119e-6
7.200e+1, 2.124e-6
7.203e+1, 2.130e-6
7.206e+1, 2.125e-6
7.209e+1, 2.145e-6
7.212e+1, 2.169e-6
7.215e+1, 2.431e-6
7.218e+1, 2.459e-6
7.221e+1, 2.449e-6
7.224e+1, 2.444e-6
7.227e+1, 2.436e-6
7.230e+1, 2.422e-6
7.233e+1, 2.335e-6
7.236e+1, 2.303e-6
7.239e+1, 2.308e-6
7.242e+1, 2.303e-6
7.245e+1, 2.296e-6
7.248e+1, 2.286e-6
7.251e+1, 2.281e-6
7.254e+1, 2.241e-6
7.257e+1, 2.199e-6
7.260e+1, 2.187e-6
7.263e+1, 2.106e-6
7.266e+1, 2.096e-6
7.269e+1, 2.100e-6
7.272e+1, 2.102e-6
7.275e+1, 2.104e-6
7.278e+1, 2.093e-6
7.281e+1, 2.116e-6
7.284e+1, 2.190e-6
7.287e+1, 2.415e-6
7.290e+1, 2.475e-6
7.293e+1, 2.489e-6
7.296e+1, 2.487e-6
7.299e+1, 2.459e-6
7.302e+1, 2.412e-6
7.305e+1, 2.313e-6
7.308e+1, 2.324e-6
7.311e+1, 2.326e-6
7.314e+1, 2.300e-6
7.317e+1, 2.276e-6
7.320e+1, 2.265e-6
7.323e+1, 2.177e-6
7.326e+1, 2.163e-6
7.329e+1, 2.148e-6
7.332e+1, 2.150e-6
7.335e+1, 2.142e-6
7.338e+1, 2.147e-6
7.341e+1, 2.141e-6
7.344e+1, 2.137e-6
7.347e+1, 2.123e-6
7.350e+1, 2.102e-6
7.353e+1, 2.115e-6
7.356e+1, 2.159e-6
7.359e+1, 2.422e-6
7.362e+1, 2.453e-6
7.365e+1, 2.459e-6
7.368e+1, 2.487e-6
7.371e+1, 2.494e-6
7.374e+1, 2.431e-6
7.377e+1, 2.292e-6
7.380e+1, 2.313e-6
7.383e+1, 2.335e-6
7.386e+1, 2.335e-6
7.389e+1, 2.322e-6
7.392e+1, 2.259e-6
7.395e+1, 2.218e-6
7.398e+1, 2.132e-6
7.401e+1, 2.119e-6
7.404e+1, 2.116e-6
7.407e+1, 2.130e-6
7.410e+1, 2.130e-6
7.413e+1, 2.134e-6
7.416e+1, 2.091e-6
7.419e+1, 2.066e-6
7.422e+1, 2.063e-6
7.425e+1, 2.115e-6
7.428e+1, 2.335e-6
7.431e+1, 2.444e-6
7.434e+1, 2.437e-6
7.437e+1, 2.416e-6
7.440e+1, 2.362e-6
7.443e+1, 2.350e-6
7.446e+1, 2.243e-6
7.449e+1, 2.231e-6
7.452e+1, 2.244e-6
7.455e+1, 2.254e-6
7.458e+1, 2.199e-6
7.461e+1, 2.196e-6
7.464e+1, 2.168e-6
7.467e+1, 2.155e-6
7.470e+1, 2.161e-6
7.473e+1, 2.166e-6
7.476e+1, 2.151e-6
7.479e+1, 2.091e-6
7.482e+1, 2.086e-6
7.485e+1, 2.098e-6
7.488e+1, 2.067e-6
7.491e+1, 2.070e-6
7.494e+1, 2.142e-6
7.497e+1, 2.374e-6
7.500e+1, 2.464e-6
7.503e+1, 2.487e-6
7.506e+1, 2.470e-6
7.509e+1, 2.455e-6
7.512e+1, 2.358e-6
7.515e+1, 2.249e-6
7.518e+1, 2.228e-6
7.521e+1, 2.237e-6
7.524e+1, 2.228e-6
7.527e+1, 2.237e-6
7.530e+1, 2.215e-6
7.533e+1, 2.167e-6
7.536e+1, 2.152e-6
7.539e+1, 2.124e-6
7.542e+1, 2.099e-6
7.545e+1, 2.090e-6
7.548e+1, 2.076e-6
7.551e+1, 2.069e-6
7.554e+1, 2.065e-6
7.557e+1, 2.040e-6
7.560e+1, 2.045e-6
7.563e+1, 2.111e-6
7.566e+1, 2.295e-6
7.569e+1, 2.426e-6
7.572e+1, 2.442e-6
7.575e+1, 2.451e-6
7.578e+1, 2.431e-6
7.581e+1, 2.352e-6
7.584e+1, 2.241e-6
7.587e+1, 2.230e-6
7.590e+1, 2.224e-6
7.593e+1, 2.237e-6
7.596e+1, 2.234e-6
7.599e+1, 2.173e-6
7.602e+1, 2.144e-6
7.605e+1, 2.153e-6
7.608e+1, 2.164e-6
7.611e+1, 2.175e-6
7.614e+1, 2.171e-6
7.617e+1, 2.106e-6
7.620e+1, 2.057e-6
7.623e+1, 2.038e-6
7.626e+1, 1.999e-6
7.629e+1, 1.987e-6
7.632e+1, 2.039e-6
7.635e+1, 2.249e-6
7.638e+1, 2.393e-6
7.641e+1, 2.412e-6
7.644e+1, 2.434e-6
7.647e+1, 2.441e-6
7.650e+1, 2.442e-6
7.653e+1, 2.323e-6
7.656e+1, 2.280e-6
7.659e+1, 2.314e-6
7.662e+1, 2.319e-6
7.665e+1, 2.301e-6
7.668e+1, 2.248e-6
7.671e+1, 2.173e-6
7.674e+1, 2.170e-6
7.677e+1, 2.115e-6
7.680e+1, 2.096e-6
7.683e+1, 2.099e-6
7.686e+1, 2.093e-6
7.689e+1, 2.092e-6
7.692e+1, 2.099e-6
7.695e+1, 2.007e-6
7.698e+1, 1.976e-6
7.701e+1, 2.134e-6
7.704e+1, 2.252e-6
7.707e+1, 2.246e-6
7.710e+1, 2.273e-6
7.713e+1, 2.228e-6
7.716e+1, 2.225e-6
7.719e+1, 2.227e-6
7.722e+1, 2.173e-6
7.725e+1, 2.262e-6
7.728e+1, 2.290e-6
7.731e+1, 2.286e-6
7.734e+1, 2.237e-6
7.737e+1, 2.152e-6
7.740e+1, 2.138e-6
7.743e+1, 2.099e-6
7.746e+1, 2.087e-6
7.749e+1, 2.067e-6
7.752e+1, 2.037e-6
7.755e+1, 2.041e-6
7.758e+1, 2.035e-6
7.761e+1, 2.010e-6
7.764e+1, 2.021e-6
7.767e+1, 2.092e-6
7.770e+1, 2.313e-6
7.773e+1, 2.336e-6
7.776e+1, 2.282e-6
7.779e+1, 2.261e-6
7.782e+1, 2.255e-6
7.785e+1, 2.174e-6
7.788e+1, 2.117e-6
7.791e+1, 2.172e-6
7.794e+1, 2.232e-6
7.797e+1, 2.270e-6
7.800e+1, 2.262e-6
7.803e+1, 2.169e-6
7.806e+1, 2.128e-6
7.809e+1, 2.087e-6
7.812e+1, 2.079e-6
7.815e+1, 2.084e-6
7.818e+1, 2.081e-6
7.821e+1, 2.075e-6
7.824e+1, 2.050e-6
7.827e+1, 2.048e-6
7.830e+1, 2.051e-6
7.833e+1, 2.094e-6
7.836e+1, 2.292e-6
7.839e+1, 2.457e-6
7.842e+1, 2.393e-6
7.845e+1, 2.390e-6
7.848e+1, 2.358e-6
7.851e+1, 2.303e-6
7.854e+1, 2.228e-6
7.857e+1, 2.294e-6
7.860e+1, 2.336e-6
7.863e+1, 2.335e-6
7.866e+1, 2.324e-6
7.869e+1, 2.262e-6
7.872e+1, 2.218e-6
7.875e+1, 2.219e-6
7.878e+1, 2.185e-6
7.881e+1, 2.149e-6
7.884e+1, 2.157e-6
7.887e+1, 2.156e-6
7.890e+1, 2.158e-6
7.893e+1, 2.149e-6
7.896e+1, 2.161e-6
7.899e+1, 2.171e-6
7.902e+1, 2.342e-6
7.905e+1, 2.424e-6
7.908e+1, 2.329e-6
7.911e+1, 2.330e-6
7.914e+1, 2.346e-6
7.917e+1, 2.281e-6
7.920e+1, 2.162e-6
7.923e+1, 2.187e-6
7.926e+1, 2.203e-6
7.929e+1, 2.267e-6
7.932e+1, 2.302e-6
7.935e+1, 2.225e-6
7.938e+1, 2.196e-6
7.941e+1, 2.192e-6
7.944e+1, 2.145e-6
7.947e+1, 2.145e-6
7.950e+1, 2.125e-6
7.953e+1, 2.117e-6
7.956e+1, 2.101e-6
7.959e+1, 2.050e-6
7.962e+1, 2.029e-6
7.965e+1, 2.062e-6
7.968e+1, 2.190e-6
7.971e+1, 2.300e-6
7.974e+1, 2.283e-6
7.977e+1, 2.258e-6
7.980e+1, 2.229e-6
7.983e+1, 2.196e-6
7.986e+1, 2.082e-6
7.989e+1, 2.066e-6
7.992e+1, 2.099e-6
7.995e+1, 2.094e-6
7.998e+1, 2.107e-6
8.001e+1, 2.113e-6
8.004e+1, 2.099e-6
8.007e+1, 2.122e-6
8.010e+1, 2.135e-6
8.013e+1, 2.147e-6
8.016e+1, 2.114e-6
8.019e+1, 2.087e-6
8.022e+1, 2.068e-6
8.025e+1, 2.009e-6
8.028e+1, 2.011e-6
8.031e+1, 2.117e-6
8.034e+1, 2.256e-6
8.037e+1, 2.261e-6
8.040e+1, 2.230e-6
8.043e+1, 2.163e-6
8.046e+1, 2.153e-6
8.049e+1, 2.121e-6
8.052e+1, 2.026e-6
8.055e+1, 2.065e-6
8.058e+1, 2.066e-6
8.061e+1, 2.069e-6
8.064e+1, 2.107e-6
8.067e+1, 2.121e-6
8.070e+1, 2.124e-6
8.073e+1, 2.112e-6
8.076e+1, 2.050e-6
8.079e+1, 1.965e-6
8.082e+1, 1.979e-6
8.085e+1, 1.986e-6
8.088e+1, 1.969e-6
8.091e+1, 1.955e-6
8.094e+1, 1.957e-6
8.097e+1, 2.144e-6
8.100e+1, 2.265e-6
8.103e+1, 2.289e-6
8.106e+1, 2.272e-6
8.109e+1, 2.226e-6
8.112e+1, 2.223e-6
8.115e+1, 2.156e-6
8.118e+1, 2.089e-6
8.121e+1, 2.116e-6
8.124e+1, 2.115e-6
8.127e+1, 2.128e-6
8.130e+1, 2.168e-6
8.133e+1, 2.142e-6
8.136e+1, 2.112e-6
8.139e+1, 2.091e-6
8.142e+1, 2.013e-6
8.145e+1, 2.034e-6
8.148e+1, 2.032e-6
8.151e+1, 2.032e-6
8.154e+1, 2.012e-6
8.157e+1, 2.009e-6
8.160e+1, 2.004e-6
8.163e+1, 2.146e-6
8.166e+1, 2.301e-6
8.169e+1, 2.322e-6
8.172e+1, 2.320e-6
8.175e+1, 2.314e-6
8.178e+1, 2.307e-6
8.181e+1, 2.221e-6
8.184e+1, 2.161e-6
8.187e+1, 2.165e-6
8.190e+1, 2.172e-6
8.193e+1, 2.175e-6
8.196e+1, 2.163e-6
8.199e+1, 2.131e-6
8.202e+1, 2.108e-6
8.205e+1, 2.122e-6
8.208e+1, 2.097e-6
8.211e+1, 2.028e-6
8.214e+1, 2.022e-6
8.217e+1, 2.020e-6
8.220e+1, 1.991e-6
8.223e+1, 1.985e-6
8.226e+1, 1.992e-6
8.229e+1, 2.147e-6
8.232e+1, 2.251e-6
8.235e+1, 2.237e-6
8.238e+1, 2.190e-6
8.241e+1, 2.183e-6
8.244e+1, 2.164e-6
8.247e+1, 2.136e-6
8.250e+1, 1.979e-6
8.253e+1, 2.038e-6
8.256e+1, 2.034e-6
8.259e+1, 2.025e-6
8.262e+1, 2.008e-6
8.265e+1, 1.969e-6
8.268e+1, 1.961e-6
8.271e+1, 1.973e-6
8.274e+1, 2.001e-6
8.277e+1, 2.022e-6
8.280e+1, 2.034e-6
8.283e+1, 2.017e-6
8.286e+1, 2.002e-6
8.289e+1, 1.980e-6
8.292e+1, 1.989e-6
8.295e+1, 2.004e-6
8.298e+1, 2.137e-6
8.301e+1, 2.092e-6
8.304e+1, 2.085e-6
8.307e+1, 2.067e-6
8.310e+1, 2.026e-6
8.313e+1, 2.007e-6
8.316e+1, 1.938e-6
8.319e+1, 1.957e-6
8.322e+1, 1.962e-6
8.325e+1, 1.943e-6
8.328e+1, 1.939e-6
8.331e+1, 1.960e-6
8.334e+1, 1.961e-6
8.337e+1, 1.980e-6
8.340e+1, 2.010e-6
8.343e+1, 2.035e-6
8.346e+1, 2.003e-6
8.349e+1, 1.990e-6
8.352e+1, 1.985e-6
8.355e+1, 1.925e-6
8.358e+1, 1.929e-6
8.361e+1, 1.957e-6
8.364e+1, 2.045e-6
8.367e+1, 2.096e-6
8.370e+1, 2.110e-6
8.373e+1, 2.063e-6
8.376e+1, 2.031e-6
8.379e+1, 2.021e-6
8.382e+1, 1.928e-6
8.385e+1, 1.935e-6
8.388e+1, 1.928e-6
8.391e+1, 1.933e-6
8.394e+1, 1.938e-6
8.397e+1, 1.963e-6
8.400e+1, 1.950e-6
8.403e+1, 1.931e-6
8.406e+1, 1.915e-6
8.409e+1, 1.925e-6
8.412e+1, 1.909e-6
8.415e+1, 1.937e-6
8.418e+1, 1.940e-6
8.421e+1, 1.855e-6
8.424e+1, 1.865e-6
8.427e+1, 1.889e-6
8.430e+1, 2.046e-6
8.433e+1, 2.070e-6
8.436e+1, 2.084e-6
8.439e+1, 2.075e-6
8.442e+1, 2.077e-6
8.445e+1, 2.075e-6
8.448e+1, 1.953e-6
8.451e+1, 1.954e-6
8.454e+1, 1.953e-6
8.457e+1, 1.964e-6
8.460e+1, 1.980e-6
8.463e+1, 1.971e-6
8.466e+1, 1.975e-6
8.469e+1, 1.958e-6
8.472e+1, 1.953e-6
8.475e+1, 1.914e-6
8.478e+1, 1.906e-6
8.481e+1, 1.909e-6
8.484e+1, 1.909e-6
8.487e+1, 1.901e-6
8.490e+1, 1.878e-6
8.493e+1, 1.891e-6
8.496e+1, 1.978e-6
8.499e+1, 2.130e-6
8.502e+1, 2.140e-6
8.505e+1, 2.129e-6
8.508e+1, 2.086e-6
8.511e+1, 2.045e-6
8.514e+1, 1.983e-6
8.517e+1, 2.001e-6
8.520e+1, 2.025e-6
8.523e+1, 2.024e-6
8.526e+1, 2.016e-6
8.529e+1, 2.000e-6
8.532e+1, 1.973e-6
8.535e+1, 1.973e-6
8.538e+1, 1.965e-6
8.541e+1, 1.956e-6
8.544e+1, 1.950e-6
8.547e+1, 1.956e-6
8.550e+1, 1.953e-6
8.553e+1, 1.948e-6
8.556e+1, 1.947e-6
8.559e+1, 1.912e-6
8.562e+1, 1.944e-6
8.565e+1, 2.047e-6
8.568e+1, 2.079e-6
8.571e+1, 2.009e-6
8.574e+1, 1.973e-6
8.577e+1, 1.940e-6
8.580e+1, 1.933e-6
8.583e+1, 1.841e-6
8.586e+1, 1.872e-6
8.589e+1, 1.897e-6
8.592e+1, 1.934e-6
8.595e+1, 1.899e-6
8.598e+1, 1.866e-6
8.601e+1, 1.882e-6
8.604e+1, 1.868e-6
8.607e+1, 1.881e-6
8.610e+1, 1.862e-6
8.613e+1, 1.818e-6
8.616e+1, 1.809e-6
8.619e+1, 1.813e-6
8.622e+1, 1.716e-6
8.625e+1, 1.717e-6
8.628e+1, 1.785e-6
8.631e+1, 1.944e-6
8.634e+1, 1.981e-6
8.637e+1, 1.985e-6
8.640e+1, 1.974e-6
8.643e+1, 1.936e-6
8.646e+1, 1.914e-6
8.649e+1, 1.890e-6
8.652e+1, 1.939e-6
8.655e+1, 1.953e-6
8.658e+1, 1.911e-6
8.661e+1, 1.935e-6
8.664e+1, 1.925e-6
8.667e+1, 1.847e-6
8.670e+1, 1.842e-6
8.673e+1, 1.862e-6
8.676e+1, 1.823e-6
8.679e+1, 1.760e-6
8.682e+1, 1.758e-6
8.685e+1, 1.745e-6
8.688e+1, 1.739e-6
8.691e+1, 1.729e-6
8.694e+1, 1.685e-6
8.697e+1, 1.785e-6
8.700e+1, 1.976e-6
8.703e+1, 1.980e-6
8.706e+1, 1.999e-6
8.709e+1, 1.984e-6
8.712e+1, 1.987e-6
8.715e+1, 1.889e-6
8.718e+1, 1.852e-6
8.721e+1, 1.888e-6
8.724e+1, 1.926e-6
8.727e+1, 1.905e-6
8.730e+1, 1.872e-6
8.733e+1, 1.837e-6
8.736e+1, 1.823e-6
8.739e+1, 1.783e-6
8.742e+1, 1.767e-6
8.745e+1, 1.778e-6
8.748e+1, 1.770e-6
8.751e+1, 1.747e-6
8.754e+1, 1.730e-6
8.757e+1, 1.664e-6
8.760e+1, 1.649e-6
8.763e+1, 1.653e-6
8.766e+1, 1.731e-6
8.769e+1, 1.938e-6
8.772e+1, 2.177e-6
8.775e+1, 2.142e-6
8.778e+1, 2.087e-6
8.781e+1, 2.079e-6
8.784e+1, 2.070e-6
8.787e+1, 1.960e-6
8.790e+1, 1.924e-6
8.793e+1, 1.935e-6
8.796e+1, 1.903e-6
8.799e+1, 1.883e-6
8.802e+1, 1.874e-6
8.805e+1, 1.869e-6
8.808e+1, 1.875e-6
8.811e+1, 1.876e-6
8.814e+1, 1.826e-6
8.817e+1, 1.796e-6
8.820e+1, 1.774e-6
8.823e+1, 1.761e-6
8.826e+1, 1.748e-6
8.829e+1, 1.747e-6
8.832e+1, 1.738e-6
8.835e+1, 1.689e-6
8.838e+1, 1.781e-6
8.841e+1, 2.011e-6
8.844e+1, 2.143e-6
8.847e+1, 2.095e-6
8.850e+1, 1.998e-6
8.853e+1, 1.996e-6
8.856e+1, 1.989e-6
8.859e+1, 1.934e-6
8.862e+1, 1.955e-6
8.865e+1, 1.927e-6
8.868e+1, 1.892e-6
8.871e+1, 1.881e-6
8.874e+1, 1.834e-6
8.877e+1, 1.782e-6
8.880e+1, 1.723e-6
8.883e+1, 1.695e-6
8.886e+1, 1.691e-6
8.889e+1, 1.688e-6
8.892e+1, 1.703e-6
8.895e+1, 1.704e-6
8.898e+1, 1.669e-6
8.901e+1, 1.669e-6
8.904e+1, 1.683e-6
8.907e+1, 1.796e-6
8.910e+1, 1.980e-6
8.913e+1, 2.024e-6
8.916e+1, 2.012e-6
8.919e+1, 1.985e-6
8.922e+1, 1.957e-6
8.925e+1, 1.827e-6
8.928e+1, 1.850e-6
8.931e+1, 1.854e-6
8.934e+1, 1.864e-6
8.937e+1, 1.844e-6
8.940e+1, 1.800e-6
8.943e+1, 1.787e-6
8.946e+1, 1.722e-6
8.949e+1, 1.704e-6
8.952e+1, 1.671e-6
8.955e+1, 1.648e-6
8.958e+1, 1.626e-6
8.961e+1, 1.615e-6
8.964e+1, 1.578e-6
8.967e+1, 1.528e-6
8.970e+1, 1.539e-6
8.973e+1, 1.681e-6
8.976e+1, 1.859e-6
8.979e+1, 1.878e-6
8.982e+1, 1.889e-6
8.985e+1, 1.878e-6
8.988e+1, 1.844e-6
8.991e+1, 1.848e-6
8.994e+1, 1.825e-6
8.997e+1, 1.857e-6
9.000e+1, 1.867e-6
9.003e+1, 1.856e-6
9.006e+1, 1.736e-6
9.009e+1, 1.656e-6
9.012e+1, 1.663e-6
9.015e+1, 1.650e-6
9.018e+1, 1.650e-6
9.021e+1, 1.617e-6
9.024e+1, 1.583e-6
9.027e+1, 1.578e-6
9.030e+1, 1.578e-6
9.033e+1, 1.534e-6
9.036e+1, 1.547e-6
9.039e+1, 1.616e-6
9.042e+1, 1.767e-6
9.045e+1, 1.855e-6
9.048e+1, 1.827e-6
9.051e+1, 1.837e-6
9.054e+1, 1.858e-6
9.057e+1, 1.820e-6
9.060e+1, 1.733e-6
9.063e+1, 1.787e-6
9.066e+1, 1.795e-6
9.069e+1, 1.784e-6
9.072e+1, 1.743e-6
9.075e+1, 1.680e-6
9.078e+1, 1.662e-6
9.081e+1, 1.649e-6
9.084e+1, 1.637e-6
9.087e+1, 1.604e-6
9.090e+1, 1.590e-6
9.093e+1, 1.581e-6
9.096e+1, 1.579e-6
9.099e+1, 1.583e-6
9.102e+1, 1.624e-6
9.105e+1, 1.618e-6
9.108e+1, 1.661e-6
9.111e+1, 1.784e-6
9.114e+1, 1.821e-6
9.117e+1, 1.819e-6
9.120e+1, 1.806e-6
9.123e+1, 1.760e-6
9.126e+1, 1.738e-6
9.129e+1, 1.774e-6
9.132e+1, 1.786e-6
9.135e+1, 1.800e-6
9.138e+1, 1.781e-6
9.141e+1, 1.700e-6
9.144e+1, 1.670e-6
9.147e+1, 1.678e-6
9.150e+1, 1.642e-6
9.153e+1, 1.611e-6
9.156e+1, 1.595e-6
9.159e+1, 1.603e-6
9.162e+1, 1.598e-6
9.165e+1, 1.626e-6
9.168e+1, 1.632e-6
9.171e+1, 1.629e-6
9.174e+1, 1.622e-6
9.177e+1, 1.686e-6
9.180e+1, 1.815e-6
9.183e+1, 1.828e-6
9.186e+1, 1.766e-6
9.189e+1, 1.721e-6
9.192e+1, 1.725e-6
9.195e+1, 1.696e-6
9.198e+1, 1.716e-6
9.201e+1, 1.716e-6
9.204e+1, 1.716e-6
9.207e+1, 1.698e-6
9.210e+1, 1.640e-6
9.213e+1, 1.603e-6
9.216e+1, 1.597e-6
9.219e+1, 1.596e-6
9.222e+1, 1.599e-6
9.225e+1, 1.616e-6
9.228e+1, 1.611e-6
9.231e+1, 1.592e-6
9.234e+1, 1.570e-6
9.237e+1, 1.544e-6
9.240e+1, 1.563e-6
9.243e+1, 1.638e-6
9.246e+1, 1.727e-6
9.249e+1, 1.800e-6
9.252e+1, 1.809e-6
9.255e+1, 1.797e-6
9.258e+1, 1.800e-6
9.261e+1, 1.745e-6
9.264e+1, 1.726e-6
9.267e+1, 1.730e-6
9.270e+1, 1.734e-6
9.273e+1, 1.725e-6
9.276e+1, 1.661e-6
9.279e+1, 1.655e-6
9.282e+1, 1.647e-6
9.285e+1, 1.649e-6
9.288e+1, 1.634e-6
9.291e+1, 1.597e-6
9.294e+1, 1.606e-6
9.297e+1, 1.609e-6
9.300e+1, 1.588e-6
9.303e+1, 1.573e-6
9.306e+1, 1.583e-6
9.309e+1, 1.695e-6
9.312e+1, 1.796e-6
9.315e+1, 1.787e-6
9.318e+1, 1.800e-6
9.321e+1, 1.769e-6
9.324e+1, 1.745e-6
9.327e+1, 1.717e-6
9.330e+1, 1.625e-6
9.333e+1, 1.615e-6
9.336e+1, 1.607e-6
9.339e+1, 1.608e-6
9.342e+1, 1.575e-6
9.345e+1, 1.561e-6
9.348e+1, 1.552e-6
9.351e+1, 1.538e-6
9.354e+1, 1.537e-6
9.357e+1, 1.523e-6
9.360e+1, 1.515e-6
9.363e+1, 1.532e-6
9.366e+1, 1.506e-6
9.369e+1, 1.480e-6
9.372e+1, 1.518e-6
9.375e+1, 1.628e-6
9.378e+1, 1.779e-6
9.381e+1, 1.799e-6
9.384e+1, 1.800e-6
9.387e+1, 1.782e-6
9.390e+1, 1.772e-6
9.393e+1, 1.740e-6
9.396e+1, 1.677e-6
9.399e+1, 1.667e-6
9.402e+1, 1.644e-6
9.405e+1, 1.629e-6
9.408e+1, 1.580e-6
9.411e+1, 1.561e-6
9.414e+1, 1.547e-6
9.417e+1, 1.524e-6
9.420e+1, 1.510e-6
9.423e+1, 1.515e-6
9.426e+1, 1.538e-6
9.429e+1, 1.546e-6
9.432e+1, 1.545e-6
9.435e+1, 1.535e-6
9.438e+1, 1.552e-6
9.441e+1, 1.629e-6
9.444e+1, 1.768e-6
9.447e+1, 1.809e-6
9.450e+1, 1.818e-6
9.453e+1, 1.805e-6
9.456e+1, 1.777e-6
9.459e+1, 1.765e-6
9.462e+1, 1.642e-6
9.465e+1, 1.657e-6
9.468e+1, 1.675e-6
9.471e+1, 1.659e-6
9.474e+1, 1.625e-6
9.477e+1, 1.623e-6
9.480e+1, 1.631e-6
9.483e+1, 1.618e-6
9.486e+1, 1.613e-6
9.489e+1, 1.612e-6
9.492e+1, 1.602e-6
9.495e+1, 1.596e-6
9.498e+1, 1.589e-6
9.501e+1, 1.579e-6
9.504e+1, 1.583e-6
9.507e+1, 1.622e-6
9.510e+1, 1.732e-6
9.513e+1, 1.810e-6
9.516e+1, 1.844e-6
9.519e+1, 1.831e-6
9.522e+1, 1.813e-6
9.525e+1, 1.810e-6
9.528e+1, 1.769e-6
9.531e+1, 1.735e-6
9.534e+1, 1.751e-6
9.537e+1, 1.755e-6
9.540e+1, 1.738e-6
9.543e+1, 1.668e-6
9.546e+1, 1.661e-6
9.549e+1, 1.666e-6
9.552e+1, 1.651e-6
9.555e+1, 1.640e-6
9.558e+1, 1.644e-6
9.561e+1, 1.624e-6
9.564e+1, 1.611e-6
9.567e+1, 1.611e-6
9.570e+1, 1.598e-6
9.573e+1, 1.596e-6
9.576e+1, 1.635e-6
9.579e+1, 1.756e-6
9.582e+1, 1.850e-6
9.585e+1, 1.879e-6
9.588e+1, 1.864e-6
9.591e+1, 1.853e-6
9.594e+1, 1.826e-6
9.597e+1, 1.800e-6
9.600e+1, 1.832e-6
9.603e+1, 1.842e-6
9.606e+1, 1.849e-6
9.609e+1, 1.801e-6
9.612e+1, 1.793e-6
9.615e+1, 1.748e-6
9.618e+1, 1.731e-6
9.621e+1, 1.734e-6
9.624e+1, 1.807e-6
9.627e+1, 1.857e-6
9.630e+1, 1.863e-6
9.633e+1, 1.859e-6
9.636e+1, 1.869e-6
9.639e+1, 1.816e-6
9.642e+1, 1.810e-6
9.645e+1, 1.851e-6
9.648e+1, 1.894e-6
9.651e+1, 1.951e-6
9.654e+1, 1.968e-6
9.657e+1, 1.958e-6
9.660e+1, 1.972e-6
9.663e+1, 1.974e-6
9.666e+1, 1.896e-6
9.669e+1, 1.949e-6
9.672e+1, 1.966e-6
9.675e+1, 1.939e-6
9.678e+1, 1.907e-6
9.681e+1, 1.851e-6
9.684e+1, 1.806e-6
9.687e+1, 1.844e-6
9.690e+1, 1.875e-6
9.693e+1, 1.882e-6
9.696e+1, 1.876e-6
9.699e+1, 1.849e-6
9.702e+1, 1.854e-6
9.705e+1, 1.857e-6
9.708e+1, 1.812e-6
9.711e+1, 1.820e-6
9.714e+1, 1.879e-6
9.717e+1, 1.895e-6
9.720e+1, 1.984e-6
9.723e+1, 1.957e-6
9.726e+1, 1.930e-6
9.729e+1, 1.944e-6
9.732e+1, 1.929e-6
9.735e+1, 1.893e-6
9.738e+1, 1.906e-6
9.741e+1, 1.909e-6
9.744e+1, 1.896e-6
9.747e+1, 1.888e-6
9.750e+1, 1.870e-6
9.753e+1, 1.858e-6
9.756e+1, 1.823e-6
9.759e+1, 1.795e-6
9.762e+1, 1.775e-6
9.765e+1, 1.764e-6
9.768e+1, 1.762e-6
9.771e+1, 1.743e-6
9.774e+1, 1.685e-6
9.777e+1, 1.687e-6
9.780e+1, 1.693e-6
9.783e+1, 1.845e-6
9.786e+1, 1.858e-6
9.789e+1, 1.833e-6
9.792e+1, 1.878e-6
9.795e+1, 1.853e-6
9.798e+1, 1.857e-6
9.801e+1, 1.833e-6
9.804e+1, 1.752e-6
9.807e+1, 1.769e-6
9.810e+1, 1.759e-6
9.813e+1, 1.757e-6
9.816e+1, 1.754e-6
9.819e+1, 1.773e-6
9.822e+1, 1.794e-6
9.825e+1, 1.815e-6
9.828e+1, 1.783e-6
9.831e+1, 1.753e-6
9.834e+1, 1.704e-6
9.837e+1, 1.702e-6
9.840e+1, 1.638e-6
9.843e+1, 1.615e-6
9.846e+1, 1.661e-6
9.849e+1, 1.845e-6
9.852e+1, 1.851e-6
9.855e+1, 1.883e-6
9.858e+1, 1.865e-6
9.861e+1, 1.869e-6
9.864e+1, 1.854e-6
9.867e+1, 1.778e-6
9.870e+1, 1.757e-6
9.873e+1, 1.763e-6
9.876e+1, 1.763e-6
9.879e+1, 1.764e-6
9.882e+1, 1.789e-6
9.885e+1, 1.804e-6
9.888e+1, 1.783e-6
9.891e+1, 1.697e-6
9.894e+1, 1.672e-6
9.897e+1, 1.661e-6
9.900e+1, 1.662e-6
9.903e+1, 1.649e-6
9.906e+1, 1.611e-6
9.909e+1, 1.604e-6
9.912e+1, 1.624e-6
9.915e+1, 1.795e-6
9.918e+1, 1.862e-6
9.921e+1, 1.870e-6
9.924e+1, 1.877e-6
9.927e+1, 1.884e-6
9.930e+1, 1.885e-6
9.933e+1, 1.834e-6
9.936e+1, 1.762e-6
9.939e+1, 1.756e-6
9.942e+1, 1.766e-6
9.945e+1, 1.744e-6
9.948e+1, 1.760e-6
9.951e+1, 1.772e-6
9.954e+1, 1.756e-6
9.957e+1, 1.724e-6
9.960e+1, 1.714e-6
9.963e+1, 1.706e-6
9.966e+1, 1.667e-6
9.969e+1, 1.676e-6
9.972e+1, 1.688e-6
9.975e+1, 1.662e-6
9.978e+1, 1.649e-6
9.981e+1, 1.691e-6
9.984e+1, 1.838e-6
9.987e+1, 1.922e-6
9.990e+1, 1.895e-6
9.993e+1, 1.891e-6
9.996e+1, 1.889e-6
9.999e+1, 1.892e-6
1.000e+2, 1.794e-6
1.000e+2, 1.746e-6
1.001e+2, 1.753e-6
1.001e+2, 1.742e-6
1.001e+2, 1.742e-6
1.002e+2, 1.780e-6
1.002e+2, 1.758e-6
1.002e+2, 1.744e-6
1.003e+2, 1.702e-6
1.003e+2, 1.699e-6
1.003e+2, 1.685e-6
1.003e+2, 1.701e-6
1.004e+2, 1.700e-6
1.004e+2, 1.701e-6
1.004e+2, 1.657e-6
1.005e+2, 1.680e-6
1.005e+2, 1.731e-6
1.005e+2, 1.863e-6
1.006e+2, 1.964e-6
1.006e+2, 1.972e-6
1.006e+2, 1.973e-6
1.006e+2, 1.971e-6
1.007e+2, 1.949e-6
1.007e+2, 1.780e-6
1.007e+2, 1.779e-6
1.008e+2, 1.787e-6
1.008e+2, 1.801e-6
1.008e+2, 1.802e-6
1.009e+2, 1.840e-6
1.009e+2, 1.835e-6
1.009e+2, 1.827e-6
1.009e+2, 1.795e-6
1.010e+2, 1.777e-6
1.010e+2, 1.767e-6
1.010e+2, 1.764e-6
1.011e+2, 1.756e-6
1.011e+2, 1.715e-6
1.011e+2, 1.680e-6
1.012e+2, 1.732e-6
1.012e+2, 1.850e-6
1.012e+2, 1.960e-6
1.012e+2, 2.043e-6
1.013e+2, 2.047e-6
1.013e+2, 2.050e-6
1.013e+2, 2.040e-6
1.014e+2, 1.892e-6
1.014e+2, 1.859e-6
1.014e+2, 1.868e-6
1.015e+2, 1.866e-6
1.015e+2, 1.864e-6
1.015e+2, 1.866e-6
1.015e+2, 1.852e-6
1.016e+2, 1.873e-6
1.016e+2, 1.853e-6
1.016e+2, 1.867e-6
1.017e+2, 1.840e-6
1.017e+2, 1.780e-6
1.017e+2, 1.710e-6
1.018e+2, 1.710e-6
1.018e+2, 1.702e-6
1.018e+2, 1.730e-6
1.018e+2, 1.818e-6
1.019e+2, 1.930e-6
1.019e+2, 1.920e-6
1.019e+2, 1.941e-6
1.020e+2, 1.947e-6
1.020e+2, 1.928e-6
1.020e+2, 1.910e-6
1.021e+2, 1.846e-6
1.021e+2, 1.846e-6
1.021e+2, 1.844e-6
1.021e+2, 1.864e-6
1.022e+2, 1.816e-6
1.022e+2, 1.818e-6
1.022e+2, 1.856e-6
1.023e+2, 1.856e-6
1.023e+2, 1.854e-6
1.023e+2, 1.858e-6
1.024e+2, 1.810e-6
1.024e+2, 1.772e-6
1.024e+2, 1.756e-6
1.024e+2, 1.750e-6
1.025e+2, 1.784e-6
1.025e+2, 1.888e-6
1.025e+2, 1.930e-6
1.026e+2, 1.922e-6
1.026e+2, 1.927e-6
1.026e+2, 1.920e-6
1.027e+2, 1.907e-6
1.027e+2, 1.871e-6
1.027e+2, 1.824e-6
1.027e+2, 1.827e-6
1.028e+2, 1.792e-6
1.028e+2, 1.809e-6
1.028e+2, 1.812e-6
1.029e+2, 1.848e-6
1.029e+2, 1.861e-6
1.029e+2, 1.834e-6
1.030e+2, 1.841e-6
1.030e+2, 1.867e-6
1.030e+2, 1.858e-6
1.030e+2, 1.853e-6
1.031e+2, 1.853e-6
1.031e+2, 1.854e-6
1.031e+2, 1.819e-6
1.032e+2, 1.932e-6
1.032e+2, 1.908e-6
1.032e+2, 1.860e-6
1.033e+2, 1.874e-6
1.033e+2, 1.913e-6
1.033e+2, 1.900e-6
1.033e+2, 1.909e-6
1.034e+2, 1.720e-6
1.034e+2, 1.706e-6
1.034e+2, 1.679e-6
1.035e+2, 1.742e-6
1.035e+2, 1.749e-6
1.035e+2, 1.713e-6
1.036e+2, 1.633e-6
1.036e+2, 1.636e-6
1.036e+2, 1.630e-6
1.036e+2, 1.617e-6
1.037e+2, 1.589e-6
1.037e+2, 1.628e-6
1.037e+2, 1.614e-6
1.038e+2, 1.551e-6
1.038e+2, 1.553e-6
1.038e+2, 1.599e-6
1.039e+2, 1.674e-6
1.039e+2, 1.688e-6
1.039e+2, 1.684e-6
1.039e+2, 1.668e-6
1.040e+2, 1.709e-6
1.040e+2, 1.597e-6
1.040e+2, 1.539e-6
1.041e+2, 1.486e-6
1.041e+2, 1.489e-6
1.041e+2, 1.382e-6
1.042e+2, 1.307e-6
1.042e+2, 1.244e-6
1.042e+2, 1.198e-6
1.042e+2, 1.213e-6
1.043e+2, 1.217e-6
1.043e+2, 1.252e-6
1.043e+2, 1.245e-6
1.044e+2, 1.197e-6
1.044e+2, 1.169e-6
1.044e+2, 1.173e-6
1.045e+2, 1.238e-6
1.045e+2, 1.551e-6
1.045e+2, 1.555e-6
1.045e+2, 1.724e-6
1.046e+2, 1.743e-6
1.046e+2, 1.742e-6
1.046e+2, 1.736e-6
1.047e+2, 1.712e-6
1.047e+2, 1.687e-6
1.047e+2, 1.722e-6
1.048e+2, 1.679e-6
1.048e+2, 1.597e-6
1.048e+2, 1.594e-6
1.048e+2, 1.555e-6
1.049e+2, 1.482e-6
1.049e+2, 1.520e-6
1.049e+2, 1.658e-6
1.050e+2, 1.705e-6
1.050e+2, 1.705e-6
1.050e+2, 1.680e-6
1.051e+2, 1.712e-6
1.051e+2, 1.776e-6
1.051e+2, 1.925e-6
1.051e+2, 2.211e-6
1.052e+2, 2.276e-6
1.052e+2, 2.291e-6
1.052e+2, 2.295e-6
1.053e+2, 2.283e-6
1.053e+2, 2.246e-6
1.053e+2, 2.210e-6
1.054e+2, 2.197e-6
1.054e+2, 2.166e-6
1.054e+2, 2.134e-6
1.054e+2, 2.009e-6
1.055e+2, 1.904e-6
1.055e+2, 1.846e-6
1.055e+2, 1.722e-6
1.056e+2, 1.638e-6
1.056e+2, 1.580e-6
1.056e+2, 1.503e-6
1.057e+2, 1.462e-6
1.057e+2, 1.399e-6
1.057e+2, 1.439e-6
1.057e+2, 1.486e-6
1.058e+2, 1.496e-6
1.058e+2, 1.514e-6
1.058e+2, 1.517e-6
1.059e+2, 1.518e-6
1.059e+2, 1.512e-6
1.059e+2, 1.462e-6
1.060e+2, 1.451e-6
1.060e+2, 1.446e-6
1.060e+2, 1.434e-6
1.060e+2, 1.431e-6
1.061e+2, 1.402e-6
1.061e+2, 1.325e-6
1.061e+2, 1.214e-6
1.062e+2, 1.259e-6
1.062e+2, 1.267e-6
1.062e+2, 1.243e-6
1.063e+2, 1.240e-6
1.063e+2, 1.223e-6
1.063e+2, 1.288e-6
1.063e+2, 1.465e-6
1.064e+2, 1.708e-6
1.064e+2, 1.716e-6
1.064e+2, 1.704e-6
1.065e+2, 1.711e-6
1.065e+2, 1.700e-6
1.065e+2, 1.682e-6
1.066e+2, 1.676e-6
1.066e+2, 1.708e-6
1.066e+2, 1.707e-6
1.066e+2, 1.697e-6
1.067e+2, 1.652e-6
1.067e+2, 1.610e-6
1.067e+2, 1.574e-6
1.068e+2, 1.518e-6
1.068e+2, 1.473e-6
1.068e+2, 1.473e-6
1.069e+2, 1.467e-6
1.069e+2, 1.444e-6
1.069e+2, 1.443e-6
1.069e+2, 1.286e-6
1.070e+2, 1.257e-6
1.070e+2, 1.430e-6
1.070e+2, 1.531e-6
1.071e+2, 1.613e-6
1.071e+2, 1.559e-6
1.071e+2, 1.511e-6
1.072e+2, 1.490e-6
1.072e+2, 1.555e-6
1.072e+2, 1.467e-6
1.072e+2, 1.457e-6
1.073e+2, 1.474e-6
1.073e+2, 1.481e-6
1.073e+2, 1.438e-6
1.074e+2, 1.382e-6
1.074e+2, 1.367e-6
1.074e+2, 1.305e-6
1.075e+2, 1.295e-6
